omega:    Tc: 
0.1    0.8122746157689508
0.10495247623811907    0.8124216038198406
0.10990495247623813    0.8143368159348279
0.11485742871435718    0.8180004444496702
0.11980990495247625    0.8233733323123369
0.12476238119059531    0.8303950143607879
0.12971485742871436    0.8389809442969941
0.13466733366683342    0.8490190764310467
0.13961980990495249    0.8603660603448098
0.14457228614307155    0.872843417802103
0.1495247623811906    0.8862342000420689
0.15447723861930968    0.9002807569462794
0.15942971485742874    0.9146843633607675
0.1643821910955478    0.9291075061837625
0.16933466733366684    0.9431795937611549
0.1742871435717859    0.9565066609091746
0.17923961980990497    0.9686852765285345
0.18419209604802403    0.9793203173222553
0.1891445722861431    0.9880456028358715
0.19409704852426213    0.9945457051631332
0.1990495247623812    0.9985767088828501
0.20400200100050025    0.9999834697104182
0.20895447723861932    0.9987111240077687
0.21390695347673838    0.9948092556691036
0.21885942971485745    0.9884281261620661
0.2238119059529765    0.9798075060586315
0.22876438219109557    0.9692596580102271
0.23371685842921464    0.9571486963210056
0.23866933466733367    0.9438687750816438
0.24362181090545273    0.9298233492105695
0.2485742871435718    0.9154072268736695
0.2535267633816909    0.9009924532432759
0.2584792396198099    0.8869183935852027
0.263431715857929    0.8734858322864383
0.268384192096048    0.8609545288101874
0.27333666833416714    0.8495434749189077
0.27828914457228615    0.8394330490622962
0.2832416208104052    0.8307683181478525
0.2881940970485243    0.8236628487879349
0.29314657328664334    0.8182025231029266
0.2980990495247624    0.814448983554487
0.30305152576288147    0.8124424434910709
0.30800400200100053    0.81220369026735
0.3129564782391196    0.8137351771536223
0.31790895447723866    0.8170211537101301
0.32286143071535767    0.8220268288251742
0.3278139069534768    0.8286966040636795
0.3327663831915958    0.8369514653029025
0.3377188594297149    0.8466856851435849
0.3426713356678339    0.8577630729009336
0.34762381190595304    0.8700131155178519
0.35257628814407205    0.8832274785510138
0.35752876438219117    0.8971574704823909
0.3624812406203102    0.9115131944433275
0.3674337168584293    0.9259651855809916
0.3723861930965483    0.9401493162646231
0.3773386693346673    0.9536755984719376
0.38229114557278643    0.9661411864418651
0.38724362181090544    0.977147375113476
0.39219609804902456    0.9863197408885462
0.39714857428714356    0.9933298795508972
0.4021010505252627    0.99791661179015
0.4070535267633817    0.9999042188772449
0.4120060030015008    0.9992153750088496
0.4169584792396198    0.9958770040701794
0.42191095547773894    0.9900182285818011
0.42686343171585794    0.9818607044908078
0.43181590795397706    0.9717026951861449
0.43676838419209607    0.95989900088087
0.4417208604302152    0.9468391870805217
0.4466733366683342    0.9329264354119697
0.4516258129064533    0.9185588695789534
0.4565782891445723    0.9041145487434616
0.46153076538269133    0.8899406350529564
0.46648324162081045    0.8763466573431057
0.47143571785892946    0.8636013772145272
0.4763881940970486    0.8519325298827308
0.4813406703351676    0.8415286352704439
0.4862931465732867    0.8325421109661055
0.4912456228114057    0.8250930216628711
0.49619809904952483    0.8192729307245181
0.5011505752876438    0.8151484512978456
0.506103051525763    0.812764211066366
0.511055527763882    0.8121450398154912
0.5160080040020011    0.81329726257378
0.5209604802401201    0.8162090375074649
0.5259129564782392    0.8208497236204906
0.5308654327163582    0.8271683063996893
0.5358179089544772    0.8350909578501116
0.5407703851925963    0.844517868406889
0.5457228614307154    0.8553195680764645
0.5506753376688345    0.8673330561042528
0.5556278139069535    0.8803581808722364
0.5605802901450726    0.8941548455302266
0.5655327663831916    0.9084417408796852
0.5704852426213107    0.9228973942938227
0.5754377188594297    0.9371643302125738
0.5803901950975489    0.9508570171256128
0.5853426713356679    0.9635739878724097
0.590295147573787    0.9749140489773842
0.595247623811906    0.984495869176133
0.600200100050025    0.9919795435411183
0.6051525762881441    0.9970881087801567
0.6101050525262631    0.9996266063378134
0.6150575287643822    0.9994963001653003
0.6200100050025013    0.9967021235538658
0.6249624812406204    0.9913523025646271
0.6299149574787394    0.9836502102596958
0.6348674337168585    0.9738796003227427
0.6398199099549775    0.9623852089053724
0.6447723861930966    0.9495511377825621
0.6497248624312156    0.935779400685141
0.6546773386693346    0.9214706058555151
0.6596298149074538    0.9070081132469816
0.6645822911455728    0.8927463124425454
0.6695347673836919    0.8790030538753645
0.6744872436218109    0.866055811834167
0.67943971985993    0.8541408866768525
0.684392196098049    0.843454846938755
0.6893446723361681    0.8341574282465243
0.6942971485742871    0.8263751983791598
0.6992496248124063    0.8202054255850733
0.7042021010505253    0.815719720542081
0.7091545772886444    0.8129671430108373
0.7141070535267634    0.8119765640314467
0.7190595297648825    0.8127581523912865
0.7240120060030015    0.8153039136460095
0.7289644822411206    0.8195872574846202
0.7339169584792397    0.8255616123030292
0.7388694347173587    0.8331581525171468
0.7438219109554778    0.8422827621109729
0.7487743871935968    0.8528124336775245
0.7537268634317159    0.8645913997673793
0.7586793396698349    0.8774274122954874
0.763631815907954    0.8910887187392964
0.768584292146073    0.9053024139204311
0.7735367683841922    0.9197549446909199
0.7784892446223112    0.9340955718880892
0.7834417208604303    0.9479435027732597
0.7883941970985493    0.960899155002288
0.7933466733366684    0.9725595778297367
0.7982991495747874    0.9825374560471463
0.8032516258129065    0.9904824315014997
0.8082041020510256    0.9961028275999443
0.8131565782891447    0.9991854209564275
0.8181090545272637    0.9996108276560437
0.8230615307653827    0.9973624475610028
0.8280140070035018    0.9925277123248939
0.8329664832416208    0.9852914608769521
0.8379189594797399    0.9759223834038677
0.8428714357178589    0.9647543821936543
0.8478239119559781    0.9521652126828004
0.8527763881940971    0.9385548257243101
0.8577288644322162    0.9243254892928723
0.8626813406703352    0.9098651658305058
0.8676338169084543    0.8955349291294695
0.8725862931465733    0.8816605674845603
0.8775387693846924    0.8685280302689903
0.8824912456228114    0.8563820674067919
0.8874437218609306    0.8454272738276165
0.8923961980990496    0.8358307457146077
0.8973486743371686    0.8277256355362954
0.9023011505752877    0.8212150159144384
0.9072536268134067    0.8163755961241914
0.9122061030515258    0.8132609590464253
0.9171585792896448    0.8119040906255133
0.922111055527764    0.8123190560007609
0.927063531765883    0.8145017392763797
0.9320160080040021    0.8184296132091122
0.9369684842421211    0.8240605483288137
0.9419209604802402    0.8313307161602602
0.9468734367183592    0.8401516961204556
0.9518259129564783    0.8504069671790649
0.9567783891945973    0.86194805817654
0.9617308654327165    0.874590745541828
0.9666833416708355    0.8881118184504448
0.9716358179089545    0.9022470645474086
0.9765882941470736    0.9166912381984385
0.9815407703851926    0.931100820042738
0.9864932466233117    0.9451003153320283
0.9914457228614307    0.9582926240279221
0.9963981990995499    0.9702736193308263
1.0013506753376689    0.9806505009613545
1.006303151575788    0.989062806610671
1.011255627813907    0.9952042901397319
1.016208104052026    0.9988433716356028
1.0211605802901451    0.9998396968775666
1.0261130565282643    0.9981546206562122
1.0310655327663834    0.9938541508491434
1.0360180090045024    0.987103932336435
1.0409704852426214    0.978156986729085
1.0459229614807406    0.9673359000751001
1.0508754377188596    0.9550117621986358
1.0558279139569786    0.9415823153523186
1.0607803901950976    0.9274514996805016
1.0657328664332166    0.9130120176386576
1.0706853426713359    0.8986318483070654
1.0756378189094549    0.8846449803850283
1.0805902951475739    0.8713461050004487
1.0855427713856929    0.858988662353281
1.0904952476238121    0.84778546584878
1.0954477238619311    0.8379110990639338
1.1004002001000501    0.8295053480573981
1.1053526763381694    0.8226770497234064
1.1103051525762884    0.8175078713221936
1.1152576288144074    0.8140556641356
1.1202101050525264    0.812357143404417
1.1251625812906456    0.812429733667998
1.1301150575287646    0.8142724853721668
1.1350675337668836    0.8178660205866652
1.1400200100050026    0.8231715101476741
1.1449724862431216    0.8301287295313864
1.1499249624812409    0.8386532942462175
1.1548774387193599    0.8486332446223124
1.159829914957479    0.8599252397048571
1.164782391195598    0.8723507319640622
1.1697348674337171    0.8856926241487559
1.1746873436718361    0.8996930435201641
1.1796398199099551    0.9140529824546971
1.1845922961480742    0.9284346116968707
1.1895447723861934    0.9424670281256713
1.1944972486243124    0.9557560070297106
1.1994497248624314    0.9678979581860732
1.2044022011005504    0.9784977378344114
1.2093546773386694    0.9871892989657352
1.2143071535767886    0.9936574830734061
1.2192596298149077    0.9976587258175047
1.2242121060530267    0.9990382321390887
1.2291645822911457    0.9977413900158201
1.234117058529265    0.9938178522564165
1.239069534767384    0.9874177138212957
1.244022011005503    0.9787803364375683
1.248974487243622    0.9682173714361951
1.2539269634817412    0.9560921948776304
1.2588794397198602    0.9427981882631298
1.2638319159579792    0.9287380892726632
1.2687843921960982    0.9143061154085286
1.2737368684342174    0.8998738922453983
1.2786893446723364    0.8857805534967811
1.2836418209104554    0.8723268343015191
1.2885942971485744    0.8597726063528626
1.2935467733866934    0.8483371072116097
1.2984992496248127    0.8382010664002801
1.3034517258629317    0.8295099831356979
1.3084042021010507    0.8223779203194113
1.3133566783391697    0.8168913106277602
1.318309154577289    0.8131123986638149
1.323261630815408    0.8110820545187434
1.328214107053527    0.8108217837726424
1.333166583291646    0.8123348280044932
1.3381190595297652    0.8156063030843922
1.3430715357678842    0.820602366769327
1.3480240120060032    0.8272684502486132
1.3529764882441222    0.8355266382796109
1.3579289644822414    0.8452723468222081
1.3628814407203604    0.8563705314271509
1.3678339169584794    0.8686517667352889
1.3727863931965985    0.8819086646649409
1.3777388694347175    0.895893235535208
1.3826913456728367    0.910315921117258
1.3876438219109557    0.9248471078850635
1.3925962981490747    0.939121918451888
1.3975487743871937    0.9527489314129605
1.402501250625313    0.9653231561221065
1.407453726863432    0.9764430792917218
1.412406203101551    0.985730943051099
1.41735867933967    0.9928547078913506
1.4223111555777892    0.9975495510977199
1.4272636318159082    0.9996364255915889
1.4322161080540272    0.9990352966689777
1.4371685842921462    0.9957712349565502
1.4421210605302655    0.9899724958724978
1.4470735367683845    0.9818608631161956
1.4520260130065035    0.9717356178535226
1.4569784892446225    0.959953278408803
1.4619309654827415    0.9469055940587989
1.4668834417208607    0.9329981566386811
1.4718359179589797    0.9186315151192749
1.4767883941970987    0.904186005264245
1.4817408704352177    0.8900108079636249
1.486693346673337    0.8764171548358317
1.491645822911456    0.8636751774465912
1.496598299149575    0.8520136600466316
1.501550775387694    0.8416218789694634
1.5065032516258132    0.8326527497978162
1.5114557278639322    0.8252266088426016
1.5164082041020512    0.8194350889033544
1.5213606803401702    0.8153446830411928
1.5263131565782895    0.8129997082623303
1.5312656328164085    0.8124244771556769
1.5362181090545275    0.8136245599434164
1.5411705852926465    0.8165870766072154
1.5461230615307655    0.8212800056290497
1.5510755377688847    0.8276505404259675
1.5560280140070037    0.8356225749873044
1.5609804902451228    0.8450934642131607
1.5659329664832418    0.8559302881067756
1.570885442721361    0.8679659553003252
1.57583791895948    0.880995608131534
1.580790395197599    0.8947739283767921
1.585742871435718    0.9090140688128033
1.5906953476738372    0.9233890178192603
1.5956478239119563    0.9375361983235959
1.6006003001500753    0.9510659605246954
1.6055527763881943    0.9635743111407622
1.6105052526263133    0.9746597195575558
1.6154577288644325    0.9839431902793723
1.6204102051025515    0.9910900885115632
1.6253626813406705    0.9958316019591391
1.6303151575787895    0.9979833890411662
1.6352676338169088    0.9974590419684015
1.6402201100550278    0.9942765335741762
1.6451725862931468    0.9885567457977216
1.6501250625312658    0.9805143050355283
1.655077538769385    0.9704420228546128
1.660030015007504    0.9586910258961094
1.664982491245623    0.9456490128692174
1.669934967483742    0.9317189808535218
1.6748874437218613    0.9173003109402338
1.6798399199599803    0.9027734520423271
1.6847923961980993    0.8884887562205435
1.6897448724362183    0.8747594270699313
1.6946973486743373    0.8618581156328395
1.6996498249124565    0.8500164522413556
1.7046023011505755    0.8394267148700802
1.7095547773886945    0.830244862542886
1.7145072536268136    0.8225942601705503
1.7194597298649328    0.8165695497394407
1.7244122061030518    0.8122402539977418
1.7293646823411708    0.8096538160499315
1.7343171585792898    0.8088378743577898
1.739269634817409    0.8098016471374673
1.744222111055528    0.8125363569864914
1.749174587293647    0.8170146722465008
1.754127063531766    0.8231891838551022
1.7590795397698853    0.8309899834425934
1.7640320160080043    0.8403214680784157
1.7689844922461233    0.8510585760687807
1.7739369684842423    0.8630427606749029
1.7788894447223613    0.8760781340390702
1.7838419209604806    0.88992835406804
1.7887943971985996    0.9043149642503734
1.7937468734367186    0.9189179995130137
1.7986993496748376    0.9333796971310404
1.8036518259129568    0.9473120501267949
1.8086043021510758    0.9603086659493616
1.8135567783891948    0.9719609232242483
1.8185092546273138    0.9818777767524991
1.823461730865433    0.9897078300227341
1.828414207103552    0.9951616209583523
1.833366683341671    0.9980316311981756
1.83831915957979    0.9982074954201482
1.843271635817909    0.9956843380905149
1.8482241120560283    0.9905630559779881
1.8531765882941473    0.9830425193255461
1.8581290645322663    0.9734048223642562
1.8630815407703853    0.9619956143872244
1.8680340170085046    0.9492020086544524
1.8729864932466236    0.935430551480688
1.8779389694847426    0.9210873178087344
1.8828914457228616    0.9065615422042622
1.8878439219609808    0.8922134733007863
1.8927963981990998    0.878366499727204
1.8977488744372188    0.8653031215061942
1.9027013506753379    0.8532640577103106
1.907653826913457    0.8424496691402634
1.912606303151576    0.8330228906429425
1.917558779389695    0.8251129626192757
1.922511255627814    0.8188193827587011
1.9274637318659331    0.8142156361274151
1.9324162081040523    0.8113523856690963
1.9373686843421714    0.8102599074266806
1.9423211605802904    0.810949634273213
1.9472736368184094    0.8134147323603504
1.9522261130565286    0.8176296823410787
1.9571785892946476    0.8235488805871247
1.9621310655327666    0.8311043224825365
1.9670835417708856    0.8402024885737053
1.9720360180090049    0.8507206319093046
1.9769884942471239    0.8625027658614157
1.9819409704852429    0.8753557761403126
1.9868934467233619    0.8890462214441524
1.991845922961481    0.9032985268038016
1.9967983991996001    0.9177953821309116
2.001750875437719    0.9321811930563881
2.006703351675838    0.946069341201461
2.011655827913957    0.9590537493450764
2.016608304152076    0.9707247882110219
2.021560780390195    0.9806889244671964
2.026513256628314    0.988590774322736
2.031465732866433    0.9941355373136789
2.0364182091045526    0.9971093225039194
2.0413706853426716    0.9973948133263077
2.0463231615807906    0.9949801391148941
2.0512756378189096    0.9899596950910969
2.0562281140570287    0.9825268070879911
2.0611805902951477    0.972959312167268
2.0661330665332667    0.9616000554661892
2.0710855427713857    0.9488348012930976
2.076038019009505    0.9350700679292089
2.080990495247624    0.9207129954293047
2.085942971485743    0.9061547025919885
2.090895447723862    0.8917578631235737
2.095847923961981    0.8778485801462526
2.1008004002001    0.8647121515481428
2.105752876438219    0.8525920240408629
2.1107053526763386    0.8416911130855962
2.1156578289144576    0.8321746761587807
2.1206103051525766    0.8241740189787649
2.1255627813906957    0.8177904450440079
2.1305152576288147    0.8130989964105899
2.1354677338669337    0.8101516586527886
2.1404202101050527    0.8089798064422463
2.1453726863431717    0.809595746833853
2.150325162581291    0.8119932788364798
2.15527763881941    0.8161472367910547
2.160230115057529    0.8220120296361841
2.165182591295648    0.8295192370797774
2.170135067533767    0.8385743856137104
2.175087543771886    0.8490531096709065
2.180040020010005    0.8607970108560881
2.184992496248124    0.8736096609909862
2.189944972486243    0.8872533446210303
2.1948974487243627    0.9014472841576535
2.1998499249624817    0.9158682025329254
2.2048024012006007    0.9301541069991694
2.2097548774387197    0.9439120684995757
2.2147073536768387    0.9567304744576519
2.2196598299149577    0.9681957262443852
2.2246123061530767    0.9779126644164879
2.2295647823911957    0.9855272319906202
2.234517258629315    0.9907491911466193
2.239469734867434    0.9933722872965653
2.244422211105553    0.9932892740928585
2.249374687343672    0.9904997448635562
2.254327163581791    0.9851096897757095
2.25927963981991    0.9773229077529373
2.264232116058029    0.9674255679332038
2.269184592296148    0.9557660763815874
2.2741370685342672    0.9427328006511491
2.2790895447723867    0.9287321177073058
2.2840420210105057    0.9141687822507212
2.2889944972486247    0.8994299330720852
2.2939469734867437    0.884873340279773
2.2988994497248627    0.8708198801224185
2.3038519259629817    0.8575497795745426
2.3088044022011007    0.8453019155114683
2.3137568784392197    0.8342753588997983
2.3187093546773387    0.8246323790959833
2.323661830915458    0.8165022200959828
2.328614307153577    0.8099850894734897
2.333566783391696    0.8051559331224967
2.338519259629815    0.8020676875576309
2.3434717358679342    0.800753798645353
2.3484242121060532    0.8012298702819173
2.3533766883441722    0.8034943621482991
2.3583291645822912    0.8075282983035182
2.3632816408204107    0.8132939854706185
2.3682341170585297    0.820732779531347
2.3731865932966487    0.8297619892044583
2.3781390695347677    0.8402710748433979
2.3830915457728867    0.8521173938675595
2.3880440220110057    0.8651218652924875
2.3929964982491247    0.8790650709015528
2.3979489744872438    0.89368446717924
2.4029014507253628    0.9086735247634418
2.407853926963482    0.9236837006109219
2.4128064032016012    0.9383301290198383
2.4177588794397202    0.9522017332138123
2.4227113556778392    0.9648760638351191
2.4276638319159582    0.9759385557432196
2.4326163081540773    0.9850051136535767
2.4375687843921963    0.9917461205887179
2.4425212606303153    0.9959093056757089
2.4474737368684347    0.9973386223538099
2.4524262131065537    0.9959865315323588
2.4573786893446727    0.9919178839030591
2.4623311655827917    0.9853048128168602
2.4672836418209108    0.9764134077713462
2.4722361180590298    0.9655841137870531
2.4771885942971488    0.9532085314618142
2.482141070535268    0.9397054591233597
2.487093546773387    0.9254986699289358
2.4920460230115062    0.910998222444547
2.4969984992496252    0.8965862782172822
2.5019509754877443    0.8826076329651384
2.5069034517258633    0.869364579589734
2.5118559279639823    0.8571153553307684
2.5168084042021013    0.8460752664697297
2.5217608804402203    0.8364195830670322
