omega:    Tc: 
0.1    0.9235440152424373
0.10395197598799401    0.9187409081936301
0.107903951975988    0.9139290836350427
0.111855927963982    0.9091217597492305
0.11580790395197599    0.9043317383296263
0.11975987993996999    0.8995713776026626
0.12371185592796399    0.8948525702817396
0.12766383191595798    0.8901867265678067
0.131615807903952    0.885584761777346
0.135567783891946    0.8810570882533771
0.13951975987993998    0.8766136111980246
0.143471735867934    0.872263728055486
0.14742371185592798    0.8680163310709841
0.15137568784392197    0.8638798126538034
0.15532766383191599    0.859862073179751
0.15927963981990997    0.8559705308796945
0.16323161580790396    0.8522121334753151
0.16718359179589798    0.8485933712401909
0.17113556778389194    0.845120291183163
0.17508754377188596    0.8417985120709196
0.17903951975987994    0.8386332400275085
0.18299149574787393    0.83562928446941
0.18694347173586795    0.832791074155717
0.19089544772386194    0.8301226731532769
0.19484742371185593    0.8276277965364183
0.19879939969984994    0.8253098256596483
0.20275137568784393    0.8231718228594749
0.20670335167583792    0.8212165454581928
0.21065532766383194    0.8194464589578951
0.21460730365182593    0.8178637493272773
0.21855927963981991    0.8164703342968843
0.22251125562781393    0.8152678735904175
0.22646323161580792    0.8142577780306068
0.2304152076038019    0.8134412174680103
0.23436718359179592    0.8128191274901426
0.2383191595797899    0.8123922148764693
0.2422711355677839    0.8121609617723653
0.24622311155577792    0.8121256285620571
0.25017508754377193    0.8122862554271443
0.2541270635317659    0.8126426625834724
0.25807903951975986    0.8131944491952745
0.2620310155077539    0.8139409909714972
0.2659829914957479    0.8148814364554173
0.2699349674837419    0.8160147020250585
0.2738869434717359    0.8173394656287201
0.2778389194597299    0.8188541592871985
0.28179089544772384    0.8205569604022684
0.28574287143571786    0.8224457819196332
0.2896948474237119    0.8245182614041375
0.2936468234117059    0.8267717490955266
0.2975987993996999    0.829203295024652
0.30155077538769387    0.8318096352826329
0.30550275137568783    0.8345871775494249
0.30945472736368185    0.837531986003212
0.31340670335167586    0.8406397657483282
0.3173586793396699    0.8439058469167859
0.3213106553276639    0.8473251686169199
0.32526263131565786    0.8508922629220872
0.3292146073036518    0.8546012391125561
0.33316658329164583    0.8584457684043887
0.33711855927963985    0.8624190694201903
0.34107053526763387    0.8665138946774037
0.34502251125562783    0.870722518390246
0.34897448724362184    0.8750367259006815
0.3529264632316158    0.879447805071583
0.3568784392196098    0.8839465399907165
0.36083041520760384    0.8885232073467596
0.36478239119559785    0.8931675758474031
0.36873436718359187    0.8978689090538694
0.3726863431715858    0.9026159720052178
0.3766383191595798    0.9073970419984526
0.3805902951475738    0.9121999238762064
0.3845422711355678    0.9170119701515745
0.38849424712356184    0.9218201062689645
0.39244622311155586    0.926610861259957
0.39639819909954976    0.9313704040037242
0.4003501750875438    0.9360845852422626
0.4043021510755378    0.9407389854316041
0.4082541270635318    0.9453189684315892
0.41220610305152583    0.9498097409492285
0.41615807903951973    0.9541964175552594
0.42011005502751375    0.9584640909914263
0.42406203101550777    0.962597907379023
0.4280140070035018    0.9665831458294594
0.4319659829914958    0.970405301847348
0.4359179589794898    0.9740501738086842
0.4398699349674837    0.9775039516939839
0.44382191095547774    0.9807533071618276
0.44777388694347176    0.9837854839654099
0.45172586293146577    0.9865883876462697
0.4556778389194598    0.9891506733885866
0.4596298149074538    0.991461830886561
0.4635817908954477    0.9935122650688573
0.4675337668834417    0.9952933715392966
0.47148574287143574    0.9967976056329986
0.47543771885942976    0.9980185440521263
0.4793896948474238    0.9989509381347
0.4833416708354178    0.9995907579222124
0.4872936468234117    0.9999352263247766
0.4912456228114057    0.9999828428333195
0.49519759879939973    0.9997333963933392
0.49914957478739375    0.9991879672296923
0.5031015507753878    0.998348917592445
0.5070535267633818    0.9972198715751645
0.5110055027513757    0.9958056843342974
0.5149574787393697    0.9941124012071266
0.5189094547273637    0.9921472073816595
0.5228614307153577    0.9899183689110522
0.5268134067033517    0.987435165984564
0.5307653826913458    0.9847078194641565
0.5347173586793397    0.9817474117689118
0.5386693346673337    0.9785658032377513
0.5426213106553277    0.9751755451242565
0.5465732866433217    0.9715897903765014
0.5505252626313157    0.9678222033311767
0.5544772386193096    0.9638868694067042
0.5584292146073037    0.9597982058171901
0.5623811905952977    0.9555708742505848
0.5663331665832917    0.9512196963634757
0.5702851425712857    0.946759572844614
0.5742371185592797    0.9422054066926836
0.5781890945472736    0.9375720312440474
0.5821410705352676    0.9328741433759227
0.5860930465232617    0.9281262422023
0.5900450225112557    0.92334257347595
0.5939969984992497    0.9185370798121383
0.5979489744872437    0.9137233567592735
0.6019009504752376    0.9089146146601934
0.6058529264632316    0.9041236461754085
0.6098049024512256    0.8993627992771396
0.6137568784392197    0.8946439554702845
0.6177088544272136    0.889978512953439
0.6216608304152076    0.8853773743994333
0.6256128064032016    0.8808509390099235
0.6295647823911956    0.8764090984817757
0.6335167583791896    0.8720612365134569
0.6374687343671837    0.8678162314766855
0.6414207103551776    0.8636824618812284
0.6453726863431716    0.8596678142681498
0.6493246623311656    0.8557796931783218
0.6532766383191596    0.852025032857528
0.6572286143071536    0.8484103103766312
0.6611805902951476    0.8449415598641508
0.6651325662831415    0.8416243875686451
0.6690845422711356    0.8384639874891033
0.6730365182591296    0.8354651573325174
0.6769884942471236    0.8326323145786778
0.6809404702351176    0.8299695124526156
0.6848924462231116    0.8274804556248071
0.6888444222111055    0.825168515478029
0.6927963981990996    0.8230367447975224
0.6967483741870936    0.8210878917577268
0.7007003501750876    0.8193244130942634
0.7046523261630816    0.8177484863641504
0.7086043021510756    0.8163620212102266
0.7125562781390695    0.8151666695577302
0.7165082541270635    0.8141638346818165
0.7204602301150576    0.813354679094652
0.7244122061030516    0.8127401312096959
0.7283641820910456    0.8123208907489177
0.7323161580790395    0.8120974328662381
0.7362681340670335    0.8120700109673711
0.7402201100550275    0.8122386582128172
0.7441720860430215    0.8126031876969311
0.7481240620310156    0.8131631913021157
0.7520760380190096    0.8139180372332091
0.7560280140070035    0.8148668662433354
0.7599799899949975    0.8160085865688763
0.7639319659829915    0.8173418675980872
0.7678839419709855    0.8188651323051664
0.7718359179589795    0.8205765484895728
0.7757878939469736    0.822474018869127
0.7797398699349675    0.8245551700850321
0.7836918459229615    0.8268173406875112
0.7876438219109555    0.8292575681824155
0.7915957978989495    0.8318725752318996
0.7955477738869435    0.8346587551161899
0.7994997498749375    0.8376121565786159
0.8034517258629315    0.8407284681923993
0.8074037018509255    0.8440030024051626
0.8113556778389195    0.8474306794356861
0.8153076538269135    0.8510060112169436
0.8192596298149075    0.8547230855997281
0.8232116058029015    0.8585755510520074
0.8271635817908954    0.8625566021102329
0.8311155577788895    0.8666589658597529
0.8350675337668835    0.8708748897419835
0.8390195097548775    0.8751961310052995
0.8429714857428715    0.8796139481344084
0.8469234617308655    0.8841190946084858
0.8508754377188594    0.8887018153508528
0.8548274137068534    0.8933518462417518
0.8587793896948475    0.8980584170700149
0.8627313656828415    0.9028102582981872
0.8666833416708355    0.907595612008212
0.8706353176588294    0.9124022473801985
0.8745872936468234    0.917217481034315
0.8785392696348174    0.9220282025347211
0.8824912456228114    0.9268209053141772
0.8864432216108055    0.9315817232279684
0.8903951975987995    0.9362964728859828
0.8943471735867934    0.9409507018420392
0.8982991495747874    0.9455297426403972
0.9022511255627814    0.9500187726311063
0.9062031015507754    0.9544028793698156
0.9101550775387695    0.9586671313148847
0.9141070535267635    0.9627966534270762
0.9180590295147574    0.9667767071667068
0.9220110055027514    0.9705927742724344
0.9259629814907454    0.9742306435975165
0.9299149574787394    0.9776765001764353
0.9338669334667334    0.9809170156002534
0.9378189094547275    0.983939438696261
0.9417708854427214    0.9867316854393599
0.9457228614307154    0.9892824269722065
0.9496748374187094    0.9915811745809753
0.9536268134067034    0.9936183604658471
0.9575787893946974    0.9953854131615925
0.9615307653826914    0.9968748265047866
0.9654827413706853    0.9980802211104565
0.9694347173586794    0.9989963974117007
0.9733866933466734    0.9996193794295465
0.9773386693346674    0.9999464485748081
0.9812906453226614    0.9999761669359506
0.9852426213106554    0.999708389673316
0.9891945972986493    0.9991442663163158
0.9931465732866434    0.9982862309418328
0.9970985492746374    0.9971379813942428
1.0010505252626314    0.9957044478854877
1.0050025012506254    0.9939917514827674
1.0089544772386194    0.9920071531474695
1.0129064532266134    0.9897589941280263
1.0168584292146075    0.9872566286284294
1.0208104052026015    0.984510349770569
1.0247623811905955    0.9815313099408033
1.0287143571785895    0.978331436658483
1.0326663331665833    0.9749233451262247
1.0366183091545773    0.9713202486197086
1.0405702851425713    0.9675358678497207
1.0445222611305653    0.9635843403833471
1.0484742371185594    0.9594801311470245
1.0524262131065534    0.9552379449545005
1.0563781890945474    0.9508726419106549
1.0603301650825414    0.9463991564407941
1.0642821410705354    0.9418324205876107
1.0682341170585294    0.9371872921074342
1.0721860930465235    0.9324784877866354
1.0761380690345175    0.9277205222904132
1.0800900450225113    0.9229276527520529
1.0840420210105053    0.9181138292127996
1.0879939969984993    0.9132926509322248
1.0919459729864933    0.9084773285074423
1.0958979489744873    0.903680651667472
1.0998499249624814    0.8989149625467894
1.1038019009504754    0.8941921341897887
1.1077538769384694    0.8895235539952878
1.1117058529264634    0.8849201117769407
1.1156578289144574    0.8803921920909903
1.1196098049024514    0.8759496704663772
1.1235617808904454    0.8716019131632308
1.1275137568784395    0.8673577800831109
1.1314657328664335    0.8632256304574907
1.1354177088544273    0.8592133309487271
1.1393696848424213    0.8553282658095649
1.1433216608304153    0.8515773487620966
1.1472736368184093    0.8479670362744529
1.1512256128064033    0.844503341932609
1.1551775887943974    0.8411918516249373
1.1591295647823914    0.8380377392780745
1.1630815407703854    0.835045782903787
1.1670335167583794    0.8322203807374462
1.1709854927463734    0.8295655672692073
1.1749374687343674    0.8270850289886793
1.1788894447223615    0.8247821196827154
1.1828414207103553    0.8226598751436669
1.1867933966983493    0.8207210271620855
1.1907453726863433    0.818968016693242
1.1946973486743373    0.8174030061010658
1.1986493246623313    0.816027890396118
1.2026013006503253    0.8148443073960929
1.2065532766383193    0.8138536467481505
1.2105052526263134    0.8130570577621957
1.2144572286143074    0.8124554560130997
1.2184092046023014    0.812049528678041
1.2223611805902954    0.8118397385825109
1.2263131565782894    0.8118263269355088
1.2302651325662832    0.8120093147408856
1.2342171085542772    0.8123885028780273
1.2381690845422713    0.8129634708510991
1.2421210605302653    0.8137335742121379
1.2460730365182593    0.8146979406694526
1.2500250125062533    0.8158554648992081
1.2539769884942473    0.8172048020849217
1.2579289644822413    0.8187443602169672
1.2618809404702354    0.8204722911921933
1.2658329164582294    0.822386480762562
1.2697848924462234    0.824484537391398
1.2737368684342172    0.8267637800865233
1.2776888444222112    0.8292212252912701
1.2816408204102052    0.8318535729272853
1.2855927963981992    0.8346571916971113
1.2895447723861932    0.8376281037698141
1.2934967483741873    0.840761968989475
1.2974487243621813    0.8440540687640206
1.3014007003501753    0.8474992898106513
1.3053526763381693    0.8510921079538749
1.3093046523261633    0.8548265721926755
1.3132566283141573    0.8586962892744414
1.3172086043021514    0.8626944090346098
1.3211605802901452    0.8668136107822033
1.3251125562781392    0.8710460910321443
1.3290645322661332    0.8753835529048255
1.3330165082541272    0.8798171975314236
1.3369684842421212    0.8843377178191039
1.3409204602301152    0.888935294942949
1.3448724362181093    0.8935995979402676
1.3488244122061033    0.8983197867871835
1.3527763881940973    0.9030845193361057
1.3567283641820913    0.9078819624850099
1.3606803401700853    0.9126998079346255
1.3646323161580791    0.9175252928666495
1.3685842921460731    0.9223452258444754
1.3725362681340672    0.9271460181968758
1.3764882441220612    0.9319137210942429
1.3804402201100552    0.9366340684660999
1.3843921960980492    0.941292525837763
1.3883441720860432    0.9458743450833724
1.3922961480740372    0.9503646250029305
1.3962481240620312    0.9547483775332636
1.4002001000500253    0.9590105992984235
1.4041520760380193    0.9631363480958042
1.4081040520260133    0.9671108238021329
1.412056028014007    0.9709194530712357
1.416008004002001    0.9745479770855916
1.4199599799899951    0.9779825415194628
1.4239119559779891    0.9812097877758388
1.4278639319659832    0.9842169444758562
1.4318159079539772    0.9869919181109166
1.4357678839419712    0.9895233817173312
1.4397198599299652    0.9918008604037776
1.4436718359179592    0.993814812555016
1.4476238119059532    0.9955567055532167
1.4515757878939473    0.997019084901367
1.4555277638819413    0.9981956357020173
1.459479739869935    0.9990812355382014
1.463431715857929    0.999671997920373
1.467383691845923    0.9999653056011093
1.4713356678339171    0.9999598332151982
1.4752876438219111    0.9996555588726913
1.4792396198099051    0.9990537645123081
1.4831915957978992    0.9981570250074523
1.4871435717858932    0.9969691862023244
1.4910955477738872    0.9954953322360985
1.4950475237618812    0.9937417426843106
1.4989994997498752    0.9917158402040742
1.502951475737869    0.9894261295095804
1.506903451725863    0.9868821286235299
1.510855427713857    0.9840942934460636
1.514807403701851    0.9810739367539141
1.518759379689845    0.9778331427881094
1.522711355677839    0.9743846786085593
1.5266633316658331    0.9707419033892468
1.5306153076538271    0.9669186767999429
1.5345672836418212    0.9629292675715113
1.5385192596298152    0.9587882632746374
1.5424712356178092    0.9545104822590915
1.5464232116058032    0.9501108886055946
1.550375187593797    0.9456045108383078
1.554327163581791    0.9410063650359757
1.558279139569785    0.9363313828671178
1.562231115557779    0.9315943449619095
1.566183091545773    0.9268098199234115
1.570135067533767    0.921992109175434
1.574087043521761    0.9171551977456605
1.5780390195097551    0.9123127109919558
1.5819909954977491    0.9074778771980919
1.5859429714857431    0.9026634958932929
1.5898949474737372    0.8978819116880303
1.5938469234617312    0.893144993366888
1.597798899449725    0.8884641179373342
1.601750875437719    0.8838501593009498
1.605702851425713    0.8793134811900665
1.609654827413707    0.8748639339974098
1.613606803401701    0.8705108551182889
1.617558779389695    0.8662630724232425
1.621510755377689    0.8621289104831031
1.625462731365683    0.858116199177109
1.629414707353677    0.8542322843273218
1.6333666833416711    0.8504840400182442
1.6373186593296651    0.8468778822786043
1.641270635317659    0.8434197838219363
1.645222611305653    0.8401152895633932
1.649174587293647    0.8369695326516015
1.653126563281641    0.8339872507758204
1.657078539269635    0.8311728025299389
1.661030515257629    0.8285301836354886
1.664982491245623    0.8260630428457724
1.668934467233617    0.8237746973721007
1.672886443221611    0.8216681476909569
1.676838419209605    0.8197460916075237
1.680790395197599    0.8180109374664096
1.6847423711855931    0.8164648164145988
1.688694347173587    0.8151095936345392
1.692646323161581    0.8139468784771519
1.696598299149575    0.8129780334352035
1.700550275137569    0.8122041819071655
1.704502251125563    0.8116262147105061
1.708454227113557    0.8112447953113308
1.712406203101551    0.8110603637446465
1.716358179089545    0.8110731392062585
1.720310155077539    0.8112831213037384
1.724262131065533    0.8116900899599617
1.728214107053527    0.8122936039686864
1.732166083041521    0.8130929982076187
1.7361180590295149    0.8140873795205211
1.740070035017509    0.8152756212863058
1.744022011005503    0.8166563566998809
1.747973986993497    0.8182279707968878
1.751925962981491    0.81998859126251
1.755877938969485    0.8219360780734243
1.759829914957479    0.824068012031709
1.763781890945473    0.8263816822603756
1.767733866933467    0.8288740727420773
1.771685842921461    0.8315418479956943
1.775637818909455    0.8343813379998392
1.7795897948974488    0.8373885224879396
1.7835417708854429    0.840559014756471
1.7874937468734369    0.843888045146033
1.791445722861431    0.8473704443741953
1.795397698849425    0.851000626919407
1.799349674837419    0.8547725746763493
1.803301650825413    0.8586798211248812
1.807253626813407    0.8627154362768081
1.811205602801401    0.8668720126866823
1.815157578789395    0.8711416528343126
1.819109554777389    0.875515958207136
1.823061530765383    0.8799860204294012
1.8270135067533768    0.8845424148015629
1.8309654827413708    0.8891751966267945
1.8349174587293648    0.8938739007109645
1.8388694347173589    0.8986275444272974
1.8428214107053529    0.9034246347360297
1.846773386693347    0.908253179541982
1.850725362681341    0.9131007037580696
1.854677338669335    0.9179542704195675
1.858629314657329    0.9228005071616683
1.862581290645323    0.9276256383308077
1.866533266633317    0.9324155229479896
1.870485242621311    0.9371556986795864
1.8744372186093048    0.9418314318978371
1.8783891945972988    0.9464277738298629
1.8823411705852928    0.9509296227009855
1.8862931465732868    0.9553217916766981
1.8902451225612809    0.9595890822990455
1.8941970985492749    0.963716362999325
1.8981490745372689    0.9676886521522257
1.902101050525263    0.9714912050193207
1.906053026513257    0.9751096038151483
1.910005002501251    0.9785298500202303
1.913956978489245    0.9817384579656534
1.9179089544772387    0.9847225486265668
1.9218609304652328    0.987469942490713
1.9258129064532268    0.989969250315855
1.9297648824412208    0.9922099605596171
1.9337168584292148    0.9941825222591123
1.9376688344172088    0.9958784221574322
1.9416208104052028    0.9972902549206406
1.9455727863931969    0.998411785362438
1.9495247623811909    0.9992380016934099
1.953476738369185    0.999765158936024
1.957428714357179    0.999990811792909
1.961380690345173    0.9999138364208451
1.9653326663331667    0.9995344407425338
1.9692846423211607    0.998854163117684
1.9732366183091548    0.9978758593894965
1.9771885942971488    0.9966036785168052
1.9811405702851428    0.995043027190807
1.9850925462731368    0.9932005240136084
1.9890445222611308    0.9910839439788006
1.9929964982491248    0.988702154138299
1.9969484742371189    0.986065041461218
2.000900450225113    0.9831834339870806
2.0048524262131067    0.9800690164458405
2.0088044022011005    0.9767342415600327
2.0127563781890947    0.9731922382603109
2.0167083541770885    0.9694567180356344
2.0206603301650827    0.9655418806051057
2.0246123061530765    0.9614623200425958
2.0285642821410708    0.9572329324103876
2.0325162581290646    0.9528688258676008
