omega:    Tc: 
0.1    0.7940958188169687
0.10395197598799401    0.79034799201958
0.107903951975988    0.7875120707860026
0.111855927963982    0.7855999193773833
0.11580790395197599    0.7846192751144486
0.11975987993996999    0.7845740249702265
0.12371185592796399    0.7854643479546151
0.12766383191595798    0.7872867216809314
0.131615807903952    0.7900337930417489
0.135567783891946    0.7936941144445837
0.13951975987993998    0.7982517488534275
0.143471735867934    0.8036857492329064
0.14742371185592798    0.8099695211732307
0.15137568784392197    0.8170700817427144
0.15532766383191599    0.8249472331891201
0.15927963981990997    0.8335526771435299
0.16323161580790396    0.8428291035135607
0.16718359179589798    0.8527092981671427
0.17113556778389194    0.863115324456122
0.17508754377188596    0.8739578449683602
0.17903951975987994    0.8851356606285221
0.18299149574787393    0.8965355530018893
0.18694347173586795    0.9080325206255031
0.19089544772386194    0.9194904993459403
0.19484742371185593    0.9307636478413037
0.19879939969984994    0.9416982608278661
0.20275137568784393    0.9521353426256857
0.20670335167583792    0.9619138326455546
0.21065532766383194    0.9708744234363584
0.21460730365182593    0.978863854615142
0.21855927963981991    0.9857395077001561
0.22251125562781393    0.9913740746098014
0.22646323161580792    0.995660034189232
0.2304152076038019    0.9985136539196071
0.23436718359179592    0.9998782433501164
0.2383191595797899    0.9997264238677235
0.2422711355677839    0.9980612441045272
0.24622311155577792    0.9949160552268922
0.25017508754377193    0.9903531557518064
0.2541270635317659    0.9844613097524221
0.25807903951975986    0.9773523239146515
0.2620310155077539    0.9691569286680566
0.2659829914957479    0.9600202410006377
0.2699349674837419    0.9500970903663604
0.2738869434717359    0.9395474671519298
0.2778389194597299    0.9285323113867266
0.28179089544772384    0.9172098053035349
0.28574287143571786    0.9057322747328576
0.2896948474237119    0.89424374789899
0.2936468234117059    0.882878171008354
0.2975987993996999    0.8717582410958236
0.30155077538769387    0.8609947890434181
0.30550275137568783    0.8506866291043473
0.30945472736368185    0.8409207842143784
0.31340670335167586    0.8317729968575305
0.3173586793396699    0.8233084411297926
0.3213106553276639    0.8155825609065287
0.32526263131565786    0.8086419699702732
0.3292146073036518    0.8025253612848791
0.33316658329164583    0.7972643833851352
0.33711855927963985    0.7928844515095784
0.34107053526763387    0.789405469341887
0.34502251125562783    0.7868424439603494
0.34897448724362184    0.7852059818942818
0.3529264632316158    0.7845026582189046
0.3568784392196098    0.7847352536145782
0.36083041520760384    0.7859028565338838
0.36478239119559785    0.7880008293383587
0.36873436718359187    0.7910206387700669
0.3726863431715858    0.7949495526977091
0.3766383191595798    0.7997702070083414
0.3805902951475738    0.8054600490856765
0.3845422711355678    0.8119906677958968
0.38849424712356184    0.8193270245394955
0.39244622311155586    0.8274266059259456
0.39639819909954976    0.83623852611133
0.4003501750875438    0.8457026158085703
0.4043021510755378    0.8557485452553122
0.4082541270635318    0.8662950395777331
0.41220610305152583    0.8772492562764145
0.41615807903951973    0.8885064048690856
0.42011005502751375    0.8999496965475464
0.42406203101550777    0.9114507151761868
0.4280140070035018    0.9228702979721997
0.4319659829914958    0.9340600026478567
0.4359179589794898    0.944864215885574
0.4398699349674837    0.9551229247679167
0.44382191095547774    0.9646751284927675
0.44777388694347176    0.9733628143974229
0.45172586293146577    0.981035364018553
0.4556778389194598    0.9875541975820201
0.4596298149074538    0.9927974163248016
0.4635817908954477    0.9966641692237945
0.4675337668834417    0.999078460965267
0.47148574287143574    0.9999921358814536
0.47543771885942976    0.9993868190241297
0.4793896948474238    0.9972746671541074
0.4833416708354178    0.9936978716899101
0.4872936468234117    0.9887269520224176
0.4912456228114057    0.982457969253535
0.49519759879939973    0.9750088663795831
0.49914957478739375    0.9665151929628271
0.5031015507753878    0.9571254961414001
0.5070535267633818    0.9469966554833162
0.5110055027513757    0.9362894105853767
0.5149574787393697    0.9251642840065679
0.5189094547273637    0.9137780458654987
0.5228614307153577    0.9022808077856534
0.5268134067033517    0.8908137791445145
0.5307653826913458    0.8795076722117954
0.5347173586793397    0.8684817071730029
0.5386693346673337    0.8578431438461864
0.5426213106553277    0.8476872533451695
0.5465732866433217    0.8380976383663444
0.5505252626313157    0.8291468131002919
0.5544772386193096    0.8208969608637433
0.5584292146073037    0.8134007974835715
0.5623811905952977    0.806702479656553
0.5663331665832917    0.8008385087622819
0.5702851425712857    0.7958385911066745
0.5742371185592797    0.7917264248325155
0.5781890945472736    0.7885203915260168
0.5821410705352676    0.7862341368435242
0.5860930465232617    0.7848770293836421
0.5900450225112557    0.7844544907271067
0.5939969984992497    0.7849681923006686
0.5979489744872437    0.7864161167598593
0.6019009504752376    0.7887924832094895
0.6058529264632316    0.792087537075363
0.6098049024512256    0.7962872070926218
0.6137568784392197    0.8013726339705622
0.6177088544272136    0.8073195781105147
0.6216608304152076    0.814097717559011
0.6256128064032016    0.821669852410172
0.6295647823911956    0.8299910383129144
0.6335167583791896    0.8390076796833136
0.6374687343671837    0.8486566226234789
0.6414207103551776    0.8588642981583212
0.6453726863431716    0.8695459777041818
0.6493246623311656    0.8806052138279039
0.6532766383191596    0.8919335491084998
0.6572286143071536    0.9034105826517274
0.6611805902951476    0.9149044855727424
0.6651325662831415    0.9262730514121748
0.6690845422711356    0.9373653529274348
0.6730365182591296    0.9480240514089993
0.6769884942471236    0.9580883679535187
0.6809404702351176    0.9673976787578227
0.6848924462231116    0.9757956410969185
0.6888444222111055    0.9831346978529641
0.6927963981990996    0.9892807527396652
0.6967483741870936    0.9941177633658554
0.7007003501750876    0.9975519727226922
0.7046523261630816    0.9995154979325391
0.7086043021510756    0.9999690217362054
0.7125562781390695    0.9989033868737809
0.7165082541270635    0.9963399715331386
0.7204602301150576    0.9923298168005956
0.7244122061030516    0.9869515733813987
0.7283641820910456    0.9803084229608423
0.7323161580790395    0.9725241991004676
0.7362681340670335    0.9637389763525919
0.7402201100550275    0.9541044113679356
0.7441720860430215    0.9437791074829907
0.7481240620310156    0.9329242394587944
0.7520760380190096    0.9216996247926086
0.7560280140070035    0.910260370188869
0.7599799899949975    0.8987541636434104
0.7639319659829915    0.8873192299546411
0.7678839419709855    0.8760829241566899
0.7718359179589795    0.8651609052164098
0.7757878939469736    0.8546568114935854
0.7797398699349675    0.8446623488389938
0.7836918459229615    0.835257699963959
0.7876438219109555    0.8265121677253152
0.7915957978989495    0.8184849731374122
0.7955477738869435    0.8112261394105901
0.7994997498749375    0.8047774046526788
0.8034517258629315    0.7991731169801237
0.8074037018509255    0.7944410759583143
0.8113556778389195    0.7906032931265716
0.8153076538269135    0.7876766517024991
0.8192596298149075    0.7856734514195655
0.8232116058029015    0.78460182896537
0.8271635817908954    0.7844660478653163
0.8311155577788895    0.7852666541489919
0.8350675337668835    0.7870004960179073
0.8390195097548775    0.7896606072863378
0.8429714857428715    0.7932359558785459
0.8469234617308655    0.7977110604223759
0.8508754377188594    0.8030654802659223
0.8548274137068534    0.8092731873381251
0.8587793896948475    0.8163018324360034
0.8627313656828415    0.8241119239755481
0.8666833416708355    0.8326559441513455
0.8706353176588294    0.841877435868448
0.8745872936468234    0.8517101036381426
0.8785392696348174    0.8620769825445278
0.8824912456228114    0.8728897407784424
0.8864432216108055    0.8840481921335288
0.8903951975987995    0.895440103908772
0.8943471735867934    0.9069413911217922
0.8982991495747874    0.9184167877666061
0.9022511255627814    0.9297210778915365
0.9062031015507754    0.9407009515576726
0.9101550775387695    0.9511975218987343
0.9141070535267635    0.9610494992671773
0.9180590295147574    0.9700969681241634
0.9220110055027514    0.9781856551535686
0.9259629814907454    0.9851715183078622
0.9299149574787394    0.9909254330721122
0.9338669334667334    0.9953377119954245
0.9378189094547275    0.9983221739786294
0.9417708854427214    0.9998194866017448
0.9457228614307154    0.9997995403948482
0.9496748374187094    0.9982626767169733
0.9536268134067034    0.9952396747937209
0.9575787893946974    0.9907904988699254
0.9615307653826914    0.9850019017270046
0.9654827413706853    0.9779840643826039
0.9694347173586794    0.9698665140803455
0.9733866933466734    0.9607935977490764
0.9773386693346674    0.9509197943602014
0.9812906453226614    0.9404051295797425
0.9852426213106554    0.9294109155271432
0.9891945972986493    0.9180959848304089
0.9931465732866434    0.9066135293382716
0.9970985492746374    0.8951085967377156
1.0010505252626314    0.8837162481512499
1.0050025012506254    0.8725603397552222
1.0089544772386194    0.8617528628405362
1.0129064532266134    0.8513937592299412
1.0168584292146075    0.8415711211876311
1.0208104052026015    0.8323616849272465
1.0247623811905955    0.8238315323851266
1.0287143571785895    0.8160369250381158
1.0326663331665833    0.8090252044746116
1.0366183091545773    0.8028357058236054
1.0405702851425713    0.797500641050382
1.0445222611305653    0.7930459189330885
1.0484742371185594    0.7894918769241428
1.0524262131065534    0.7868539069776765
1.0563781890945474    0.7851429628485573
1.0603301650825414    0.7843659405032695
1.0642821410705354    0.7845259263541274
1.0682341170585294    0.7856223102972122
1.0721860930465235    0.7876507622791211
1.0761380690345175    0.7906030726236424
1.0800900450225113    0.7944668579042846
1.0840420210105053    0.7992251360396956
1.0879939969984993    0.8048557768003455
1.0919459729864933    0.8113308373210515
1.0958979489744873    0.8186157967673502
1.0998499249624814    0.8266687102142922
1.1038019009504754    0.8354393091983534
1.1077538769384694    0.8448680853115789
1.1117058529264634    0.8548854034591439
1.1156578289144574    0.8654107025908564
1.1196098049024514    0.8763518531245459
1.1235617808904454    0.8876047508151665
1.1275137568784395    0.8990532350004663
1.1314657328664335    0.910569423115396
1.1354177088544273    0.9220145509994606
1.1393696848424213    0.9332403976746271
1.1433216608304153    0.9440913521034151
1.1472736368184093    0.9544071468594116
1.1512256128064033    0.9640262398260482
1.1551775887943974    0.9727897718754476
1.1591295647823914    0.9805459698685868
1.1630815407703854    0.9871548061381532
1.1670335167583794    0.9924926752448232
1.1709854927463734    0.996456814162253
1.1749374687343674    0.9989691802748204
1.1788894447223615    0.999979517500227
1.1828414207103553    0.9994673857116094
1.1867933966983493    0.997442999329166
1.1907453726863433    0.9939468101495226
1.1946973486743373    0.9890478666588551
1.1986493246623313    0.9828410752936528
1.2026013006503253    0.9754435671345448
1.2065532766383193    0.9669904277591611
1.2105052526263134    0.957630073830659
1.2144572286143074    0.9475195572565049
1.2184092046023014    0.9368200501515646
1.2223611805902954    0.9256927178982955
1.2263131565782894    0.914295131141569
1.2302651325662832    0.9027783082901569
1.2342171085542772    0.8912844244943068
1.2381690845422713    0.8799451757327053
1.2421210605302653    0.8688807501301192
1.2460730365182593    0.8581993336485333
1.2500250125062533    0.8479970631297289
1.2539769884942473    0.838358334671159
1.2579289644822413    0.8293563773963107
1.2618809404702354    0.8210540096745576
1.2658329164582294    0.8135045047897387
1.2697848924462234    0.8067525043289978
1.2737368684342172    0.8008349289395245
1.2776888444222112    0.7957818467402831
1.2816408204102052    0.7916172690742036
1.2855927963981992    0.7883598512062113
1.2895447723861932    0.786023481976392
1.2934967483741873    0.7846177514055672
1.2974487243621813    0.7841482890120383
1.3014007003501753    0.7846169683746188
1.3053526763381693    0.7860219755380957
1.3093046523261633    0.7883577404853175
1.3132566283141573    0.791614732382927
1.3172086043021514    0.7957791209342451
1.3211605802901452    0.8008323082309191
1.3251125562781392    0.8067503382680197
1.3290645322661332    0.8135031950459544
1.3330165082541272    0.8210540051703512
1.3369684842421212    0.829358167269276
1.3409204602301152    0.8383624384791295
1.3448724362181093    0.8480040176720678
1.3488244122061033    0.8582096757753527
1.3527763881940973    0.8688949949657656
1.3567283641820913    0.8799637898725909
1.3606803401700853    0.8913077939666254
1.3646323161580791    0.9028067014254265
1.3685842921460731    0.9143286569736311
1.3725362681340672    0.9257312813263737
1.3764882441220612    0.9368633057978786
1.3804402201100552    0.9475668647029901
1.3843921960980492    0.9576804576254383
1.3883441720860432    0.9670425461335481
1.3922961480740372    0.9754956936322194
1.3962481240620312    0.9828910973556911
1.4002001000500253    0.9890933045334205
1.4041520760380193    0.9939848582678643
1.4081040520260133    0.9974705905634191
1.412056028014007    0.9994812768600824
1.416008004002001    0.9999763921782612
1.4199599799899951    0.9989457634270414
1.4239119559779891    0.9964099909597924
1.4278639319659832    0.9924196064326741
1.4318159079539772    0.9870530320815686
1.4357678839419712    0.9804134965965603
1.4397198599299652    0.9726251341741436
1.4436718359179592    0.9638285386289263
1.4476238119059532    0.9541760604964571
1.4515757878939473    0.9438271231049431
1.4555277638819413    0.9329437985363515
1.459479739869935    0.9216868334626613
1.463431715857929    0.910212256060675
1.467383691845923    0.8986686360463589
1.4713356678339171    0.887195016266472
1.4752876438219111    0.8759194901716238
1.4792396198099051    0.8649583667638155
1.4831915957978992    0.8544158434136125
1.4871435717858932    0.8443840961590808
1.4910955477738872    0.8349436948532349
1.4950475237618812    0.826164254639539
1.4989994997498752    0.8181052435674837
1.502951475737869    0.8108168768386077
1.506903451725863    0.8043410397006624
1.510855427713857    0.7987121922895848
1.514807403701851    0.7939582200368152
1.518759379689845    0.7901012022090732
1.522711355677839    0.7871580785702723
1.5266633316658331    0.7851412000698401
1.5306153076538271    0.7840587540068806
1.5345672836418212    0.7839150575088483
1.5385192596298152    0.7847107156525612
1.5424712356178092    0.7864426424216795
1.5464232116058032    0.7891039442250696
1.550375187593797    0.79268366718479
1.554327163581791    0.797166411131337
1.558279139569785    0.8025318155062862
1.562231115557779    0.8087539254511198
1.566183091545773    0.8158004505221135
1.570135067533767    0.8236319339470031
1.574087043521761    0.8322008572998769
1.5780390195097551    0.8414507139822589
1.5819909954977491    0.8513150948699505
1.5859429714857431    0.8617168406016417
1.5898949474737372    0.8725673266375322
1.5938469234617312    0.8837659584340778
1.597798899449725    0.8951999634912049
1.601750875437719    0.9067445728577919
1.605702851425713    0.9182636848383345
1.609654827413707    0.9296110959011021
1.613606803401701    0.9406323660913627
1.617558779389695    0.9511673571467315
1.621510755377689    0.9610534406488138
1.625462731365683    0.9701293221968962
1.629414707353677    0.9782393690252055
1.6333666833416711    0.9852382680765315
1.6373186593296651    0.9909957864423158
1.641270635317659    0.9954013643952668
1.645222611305653    0.9983682507724562
1.649174587293647    0.9998368971595861
1.653126563281641    0.9997773638035063
1.657078539269635    0.9981905547359144
1.661030515257629    0.9951081859971685
1.664982491245623    0.9905914891216556
1.668934467233617    0.9847287500868113
1.672886443221611    0.9776318696741342
1.676838419209605    0.9694321947578683
1.680790395197599    0.9602759053396236
1.6847423711855931    0.9503192476403155
1.688694347173587    0.9397238820146572
1.692646323161581    0.9286525719253124
1.696598299149575    0.9172653845645187
1.700550275137569    0.9057165130659494
1.704502251125563    0.8941517717286869
1.708454227113557    0.8827067645894078
1.712406203101551    0.8715056872227986
1.716358179089545    0.8606606930202618
1.720310155077539    0.8502717379820763
1.724262131065533    0.8404268107547153
1.728214107053527    0.8312024551687434
1.732166083041521    0.8226644986426559
1.7361180590295149    0.8148689094217834
1.740070035017509    0.8078627169544847
1.744022011005503    0.8016849414097693
1.747973986993497    0.7963674894566506
1.751925962981491    0.7919359833607738
1.755877938969485    0.7884104989068272
1.759829914957479    0.7858061945445962
1.763781890945473    0.7841338195571238
1.767733866933467    0.7834000931368267
1.771685842921461    0.7836079492660912
1.775637818909455    0.7847566445022917
1.7795897948974488    0.7868417274479423
1.7835417708854429    0.7898548701361603
1.7874937468734369    0.7937835630726285
1.791445722861431    0.7986106775410491
1.795397698849425    0.8043139012902927
1.799349674837419    0.8108650571603466
1.803301650825413    0.8182293188324158
1.807253626813407    0.8263643439259178
1.811205602801401    0.8352193522562832
1.815157578789395    0.8447341862359187
1.819109554777389    0.8548384009881744
1.823061530765383    0.8654504433411272
1.8270135067533768    0.8764769907393914
1.8309654827413708    0.8878125321345376
1.8349174587293648    0.8993392815440879
1.8388694347173589    0.9109275192656289
1.8428214107053529    0.9224364534745864
1.846773386693347    0.93371568384791
1.850725362681341    0.9446073269738319
1.854677338669335    0.9549488294471207
1.858629314657329    0.9645764488509895
1.862581290645323    0.9733293272583048
1.866533266633317    0.9810540205593694
1.870485242621311    0.9876092860739208
1.8744372186093048    0.992870878378993
1.8783891945972988    0.9967360675169357
1.8823411705852928    0.9991275823058802
1.8862931465732868    0.9999966994330893
1.8902451225612809    0.9993252475427165
1.8941970985492749    0.997126371124459
1.8981490745372689    0.9934439936315764
1.902101050525263    0.988351021510005
1.906053026513257    0.9819464279194562
1.910005002501251    0.9743514350101496
1.913956978489245    0.9657050678345496
1.9179089544772387    0.9561593768484553
1.9218609304652328    0.9458746197660095
1.9258129064532268    0.9350146616945887
1.9297648824412208    0.9237428022272036
1.9337168584292148    0.9122181779488998
1.9376688344172088    0.9005928267284107
1.9416208104052028    0.8890094428610775
1.9455727863931969    0.8775998041680239
1.9495247623811909    0.8664838159121601
1.953476738369185    0.8557690923106821
1.957428714357179    0.8455509835137588
1.961380690345173    0.8359129522965427
1.9653326663331667    0.8269272081023011
1.9692846423211607    0.8186555142030234
1.9732366183091548    0.8111500945878374
1.9771885942971488    0.804454579115814
1.9811405702851428    0.7986049372714038
1.9850925462731368    0.7936303617335434
1.9890445222611308    0.7895540724502523
1.9929964982491248    0.7863940198036812
1.9969484742371189    0.7841634717546321
2.000900450225113    0.7828714747011973
2.0048524262131067    0.7825231813855733
2.0088044022011005    0.7831200417958
2.0127563781890947    0.7846598549175317
2.0167083541770885    0.7871366806876381
2.0206603301650827    0.7905406128826898
2.0246123061530765    0.7948574152382928
2.0285642821410708    0.8000680251373622
