omega:    Tc: 
0.1    0.8114929461910381
0.10395197598799401    0.8111204520750384
0.107903951975988    0.811853052097293
0.111855927963982    0.8136859889921952
0.11580790395197599    0.816607379824527
0.11975987993996999    0.8205978304192878
0.12371185592796399    0.825629829730552
0.12766383191595798    0.8316669432461856
0.131615807903952    0.8386628343939331
0.135567783891946    0.8465601551939925
0.13951975987993998    0.8552893623815412
0.143471735867934    0.864767532833729
0.14742371185592798    0.8748972718072836
0.15137568784392197    0.8855658279797959
0.15532766383191599    0.8966445485214408
0.15927963981990997    0.9079888224257049
0.16323161580790396    0.9194386672598254
0.16718359179589798    0.9308201089228357
0.17113556778389194    0.941947481440361
0.17508754377188596    0.9526267306186361
0.17903951975987994    0.9626597398173686
0.18299149574787393    0.971849609653861
0.18694347173586795    0.9800067217931236
0.19089544772386194    0.9869553103955595
0.19484742371185593    0.9925401675831091
0.19879939969984994    0.9966330379146751
0.20275137568784393    0.9991382269764892
0.20670335167583792    0.9999969720043573
0.21065532766383194    0.9991902014243277
0.21460730365182593    0.996739439080141
0.21855927963981991    0.9927057719738901
0.22251125562781393    0.9871869749813096
0.22646323161580792    0.9803130472352088
0.2304152076038019    0.9722405404834035
0.23436718359179592    0.9631461346445842
0.2383191595797899    0.9532199345173737
0.2422711355677839    0.9426589282777929
0.24622311155577792    0.9316609746859346
0.25017508754377193    0.9204195876241383
0.2541270635317659    0.9091196800808478
0.25807903951975986    0.8979343290025097
0.2620310155077539    0.8870225374921641
0.2659829914957479    0.876527906967489
0.2699349674837419    0.8665780902996655
0.2738869434717359    0.8572848757495808
0.2778389194597299    0.8487447469526282
0.28179089544772384    0.8410397717881224
0.28574287143571786    0.8342386883115964
0.2896948474237119    0.8283980752592931
0.2936468234117059    0.8235635150528005
0.2975987993996999    0.8197706767421217
0.30155077538769387    0.8170462637435628
0.30550275137568783    0.8154087860319982
0.30945472736368185    0.8148691286057637
0.31340670335167586    0.8154308978727911
0.3173586793396699    0.8170905356479183
0.3213106553276639    0.8198371973772528
0.32526263131565786    0.8236523977593617
0.3292146073036518    0.8285094338800163
0.33316658329164583    0.8343726040625448
0.33711855927963985    0.8411962505366687
0.34107053526763387    0.8489236662891162
0.34502251125562783    0.8574859213995976
0.34897448724362184    0.8668006817598461
0.3529264632316158    0.8767711127968487
0.3568784392196098    0.8872849814831483
0.36083041520760384    0.8982140895030155
0.36478239119559785    0.9094141860221598
0.36873436718359187    0.920725516266805
0.3726863431715858    0.9319741576059353
0.3766383191595798    0.9429742734931796
0.3805902951475738    0.9535313736556978
0.3845422711355678    0.9634466043882434
0.38849424712356184    0.9725220069209748
0.39244622311155586    0.9805665799722255
0.39639819909954976    0.9874028748394624
0.4003501750875438    0.9928737519495872
0.4043021510755378    0.9968488532964861
0.4082541270635318    0.999230311675229
0.41220610305152583    0.9999572368876751
0.41615807903951973    0.9990085952973207
0.42011005502751375    0.9964042266238611
0.42406203101550777    0.9922039053270703
0.4280140070035018    0.9865045307437255
0.4319659829914958    0.9794356949532741
0.4359179589794898    0.9711540072708973
0.4398699349674837    0.961836633431967
0.44382191095547774    0.9516745297357039
0.44777388694347176    0.9408658213101571
0.45172586293146577    0.9296097007325095
0.4556778389194598    0.9181011244217937
0.4596298149074538    0.906526476223735
0.4635817908954477    0.8950602648831462
0.4675337668834417    0.8838628349949732
0.47148574287143574    0.8730790051965371
0.47543771885942976    0.86283750421195
0.4793896948474238    0.8532510530803119
0.4833416708354178    0.8444169367333708
0.4872936468234117    0.8364179154714574
0.4912456228114057    0.8293233423225865
0.49519759879939973    0.8231903718812039
0.49914957478739375    0.8180651670121455
0.5031015507753878    0.8139840296969678
0.5070535267633818    0.8109744000518344
0.5110055027513757    0.8090556825929662
0.5149574787393697    0.808239871109087
0.5189094547273637    0.8085319533143056
0.5228614307153577    0.8099300843220024
0.5268134067033517    0.81242552455936
0.5307653826913458    0.8160023437642794
0.5347173586793397    0.8206368989295223
0.5386693346673337    0.8262971012308822
0.5426213106553277    0.8329414957948958
0.5465732866433217    0.8405181892209243
0.5505252626313157    0.8489636734839971
0.5544772386193096    0.8582016113297934
0.5584292146073037    0.8681416672212015
0.5623811905952977    0.878678488400547
0.5663331665832917    0.8896909610241617
0.5702851425712857    0.901041884047729
0.5742371185592797    0.9125782151158548
0.5781890945472736    0.9241320438944478
0.5821410705352676    0.9355224344770212
0.5860930465232617    0.9465582454550985
0.5900450225112557    0.9570419811201115
0.5939969984992497    0.9667746498311136
0.5979489744872437    0.9755615094143948
0.6019009504752376    0.9832184727051471
0.6058529264632316    0.9895788416502858
0.6098049024512256    0.9944999516750139
0.6137568784392197    0.9978692559306422
0.6177088544272136    0.9996093755381024
0.6216608304152076    0.9996816946301461
0.6256128064032016    0.9980881863742775
0.6295647823911956    0.9948713067110555
0.6335167583791896    0.9901119662558978
0.6374687343671837    0.9839257629428113
0.6414207103551776    0.9764578041289811
0.6453726863431716    0.9678765479351583
0.6493246623311656    0.9583671392942401
0.6532766383191596    0.9481247062620625
0.6572286143071536    0.9373480251828741
0.6611805902951476    0.92623387375994
0.6651325662831415    0.9149722856542657
0.6690845422711356    0.9037428144922481
0.6730365182591296    0.892711821200743
0.6769884942471236    0.8820307239448927
0.6809404702351176    0.8718350976628062
0.6848924462231116    0.8622444796614315
0.6888444222111055    0.8533627258959152
0.6927963981990996    0.8452787650926874
0.6967483741870936    0.8380676102317507
0.7007003501750876    0.8317915049374078
0.7046523261630816    0.8265011026937521
0.7086043021510756    0.8222365970735257
0.7125562781390695    0.8190287397937386
0.7165082541270635    0.8168996995763282
0.7204602301150576    0.8158637282603215
0.7244122061030516    0.8159276115598046
0.7283641820910456    0.8170908907432519
0.7323161580790395    0.8193458489505501
0.7362681340670335    0.8226772625864276
0.7402201100550275    0.8270619249964507
0.7441720860430215    0.8324679572048272
0.7481240620310156    0.8388539295847868
0.7520760380190096    0.8461678295505407
0.7560280140070035    0.854345924129319
0.7599799899949975    0.863311582725135
0.7639319659829915    0.8729741442232928
0.7678839419709855    0.8832279329124934
0.7718359179589795    0.8939515478677853
0.7757878939469736    0.9050075679070597
0.7797398699349675    0.916242825561578
0.7836918459229615    0.9274894044829334
0.7876438219109555    0.9385665007856471
0.7915957978989495    0.9492832557978286
0.7955477738869435    0.9594426127450466
0.7994997498749375    0.9688461728066929
0.8034517258629315    0.9772999303142111
0.8074037018509255    0.984620660698754
0.8113556778389195    0.9906426307086187
0.8153076538269135    0.995224214212743
0.8192596298149075    0.9982539451492541
0.8232116058029015    0.9996555357585128
0.8271635817908954    0.9993914407614588
0.8311155577788895    0.9974646551552014
0.8350675337668835    0.9939185833757181
0.8390195097548775    0.9888349908178506
0.8429714857428715    0.9823302204527513
0.8469234617308655    0.9745500031854027
0.8508754377188594    0.9656632915546194
0.8548274137068534    0.9558555920802724
0.8587793896948475    0.945322261691755
0.8627313656828415    0.934262176746183
0.8666833416708355    0.9228720935953865
0.8706353176588294    0.9113419141771418
0.8745872936468234    0.8998509642754878
0.8785392696348174    0.8885652980402804
0.8824912456228114    0.8776359676439418
0.8864432216108055    0.8671981446457971
0.8903951975987995    0.8573709491281942
0.8943471735867934    0.8482578308957635
0.8982991495747874    0.8399473496693703
0.9022511255627814    0.8325142136801766
0.9062031015507754    0.8260204542199352
0.9101550775387695    0.8205166341692937
0.9141070535267635    0.8160430088641742
0.9180590295147574    0.8126305763052282
0.9220110055027514    0.8103019698436342
0.9259629814907454    0.8090721598395136
0.9299149574787394    0.8089489415514655
0.9338669334667334    0.809933195117895
0.9378189094547275    0.8120189105452837
0.9417708854427214    0.8151929768349988
0.9457228614307154    0.8194347405133131
0.9496748374187094    0.8247153456395131
0.9536268134067034    0.8309968755821567
0.9575787893946974    0.8382313271208844
0.9615307653826914    0.8463594602477782
0.9654827413706853    0.8553095826577395
0.9694347173586794    0.8649963462023565
0.9733866933466734    0.8753196528681574
0.9773386693346674    0.8861637887497831
0.9812906453226614    0.8973969237803178
0.9852426213106554    0.9088711294783414
0.9891945972986493    0.9204230726338667
0.9931465732866434    0.931875535087618
0.9970985492746374    0.9430398840175809
1.0010505252626314    0.953719569881045
1.0050025012506254    0.9637146590008987
1.0089544772386194    0.9728273168064598
1.0129064532266134    0.9808680524464757
1.0168584292146075    0.987662427116517
1.0208104052026015    0.993057832142763
1.0247623811905955    0.996929875628987
1.0287143571785895    0.9991878938934613
1.0326663331665833    0.999779136443778
1.0366183091545773    0.9986912628941373
1.0405702851425713    0.9959529289392894
1.0445222611305653    0.9916324087001078
1.0484742371185594    0.9858343784934536
1.0524262131065534    0.9786951468419338
1.0563781890945474    0.9703767355312656
1.0603301650825414    0.9610602828973732
1.0642821410705354    0.9509392494834642
1.0682341170585294    0.9402128635976503
1.0721860930465235    0.9290801631423096
1.0761380690345175    0.9177348869672236
1.0800900450225113    0.9063613604541088
1.0840420210105053    0.8951314197498492
1.0879939969984993    0.8842023363066458
1.0919459729864933    0.8737156427333953
1.0958979489744873    0.8637967229194742
1.0998499249624814    0.8545550115427248
1.1038019009504754    0.8460846463385926
1.1077538769384694    0.8384654262453757
1.1117058529264634    0.8317639453470188
1.1156578289144574    0.8260347927192837
1.1196098049024514    0.8213217290701396
1.1235617808904454    0.8176587705905224
1.1275137568784395    0.8150711276396274
1.1314657328664335    0.8135759603617009
1.1354177088544273    0.8131829251206198
1.1393696848424213    0.8138944951181999
1.1433216608304153    0.815706046310398
1.1472736368184093    0.8186057064497084
1.1512256128064033    0.8225739715181519
1.1551775887943974    0.82758310074256
1.1591295647823914    0.8335963095448606
1.1630815407703854    0.8405667898412295
1.1670335167583794    0.8484365995900971
1.1709854927463734    0.8571354786890815
1.1749374687343674    0.8665796661625274
1.1788894447223615    0.8766708134764805
1.1828414207103553    0.8872951094930751
1.1867933966983493    0.8983227519206606
1.1907453726863433    0.9096079150952592
1.1946973486743373    0.9209893706394837
1.1986493246623313    0.9322919114854458
1.2026013006503253    0.9433287063851838
1.2065532766383193    0.9539046676872106
1.2105052526263134    0.963820848165504
1.2144572286143074    0.9728797946437024
1.2184092046023014    0.9808916829509451
1.2223611805902954    0.9876809509545297
1.2263131565782894    0.9930930486652716
1.2302651325662832    0.9970008534640797
1.2342171085542772    0.9993102701654989
1.2381690845422713    0.9999645610868053
1.2421210605302653    0.9989470337045219
1.2460730365182593    0.9962818460934029
1.2500250125062533    0.9920328567768664
1.2539769884942473    0.986300622649744
1.2579289644822413    0.9792178108366048
1.2618809404702354    0.9709434153521248
1.2658329164582294    0.9616562423274724
1.2697848924462234    0.951548143309245
1.2737368684342172    0.9408174394397706
1.2776888444222112    0.9296629024253587
1.2816408204102052    0.9182785573514536
1.2855927963981992    0.906849464237089
1.2895447723861932    0.8955485338071836
1.2934967483741873    0.8845343481136692
1.2974487243621813    0.8739498934680161
1.3014007003501753    0.8639220726069824
1.3053526763381693    0.8545618429851762
1.3093046523261633    0.8459648246510486
1.3132566283141573    0.8382122297147447
1.3172086043021514    0.8313719815098299
1.3211605802901452    0.8254999114076292
1.3251125562781392    0.8206409419808495
1.3290645322661332    0.8168301848711806
1.3330165082541272    0.8140938991495402
1.3369684842421212    0.8124502706813075
1.3409204602301152    0.8119099850244427
1.3448724362181093    0.8124765760351664
1.3488244122061033    0.8141465401901822
1.3527763881940973    0.8169092133416488
1.3567283641820913    0.8207464129521675
1.3606803401700853    0.8256318555846391
1.3646323161580791    0.831530367299247
1.3685842921460731    0.8383969143261768
1.3725362681340672    0.8461754935000863
1.3764882441220612    0.8547979368060827
1.3804402201100552    0.8641827020045303
1.3843921960980492    0.874233741189496
1.3883441720860432    0.8848395601454293
1.3922961480740372    0.895872601524643
1.3962481240620312    0.9071891012663025
1.4002001000500253    0.918629576494129
1.4041520760380193    0.9300200998569041
1.4081040520260133    0.9411744952336618
1.412056028014007    0.9518975489094521
1.416008004002001    0.961989266547562
1.4199599799899951    0.9712501204482902
1.4239119559779891    0.9794871288256017
1.4278639319659832    0.9865204990729796
1.4318159079539772    0.9921904645067665
1.4357678839419712    0.996363865787164
1.4397198599299652    0.9989399907140859
1.4436718359179592    0.9998552019054625
1.4476238119059532    0.9990859558715505
1.4515757878939473    0.9966499441153158
1.4555277638819413    0.9926052519455588
1.459479739869935    0.9870476108571543
1.463431715857929    0.9801059896333619
1.467383691845923    0.9719369040247123
1.4713356678339171    0.962717908237103
1.4752876438219111    0.9526407566617223
1.4792396198099051    0.9419046946295251
1.4831915957978992    0.9307102639854616
1.4871435717858932    0.9192539091905991
1.4910955477738872    0.9077235596370257
1.4950475237618812    0.8962952588307891
1.4989994997498752    0.8851308218046272
1.502951475737869    0.8743764344836404
1.506903451725863    0.8641620642677371
1.510855427713857    0.8546015280172425
1.514807403701851    0.8457930581046061
1.518759379689845    0.8378202145546965
1.522711355677839    0.8307530069287928
1.5266633316658331    0.8246491095363218
1.5306153076538271    0.8195550747082021
1.5345672836418212    0.8155074691101009
1.5385192596298152    0.8125338761414018
1.5424712356178092    0.8106537227799622
1.5464232116058032    0.8098789017372507
1.550375187593797    0.8102141697885805
1.554327163581791    0.8116573111780752
1.558279139569785    0.8141990617470545
1.562231115557779    0.8178227956511375
1.566183091545773    0.822503982996796
1.570135067533767    0.8282094342126323
1.574087043521761    0.8348963561918707
1.5780390195097551    0.8425112568071036
1.5819909954977491    0.8509887487193746
1.5859429714857431    0.8602503205844223
1.5898949474737372    0.8702031634432483
1.5938469234617312    0.8807391612820843
1.597798899449725    0.8917341756598977
1.601750875437719    0.9030477721924697
1.605702851425713    0.9145235478550523
1.609654827413707    0.925990218040269
1.613606803401701    0.9372636062740716
1.617558779389695    0.9481496430998806
1.621510755377689    0.9584484211158433
1.625462731365683    0.9679592706047351
1.629414707353677    0.9764867188617771
1.6333666833416711    0.9838470852985058
1.6373186593296651    0.9898753574476454
1.641270635317659    0.9944319070680421
1.645222611305653    0.9974085579684582
1.649174587293647    0.9987335218646763
1.653126563281641    0.9983747822878044
1.657078539269635    0.9963416260875986
1.661030515257629    0.9926841837313596
1.664982491245623    0.9874910212254737
1.668934467233617    0.9808850017799347
1.672886443221611    0.9730177793422636
1.676838419209605    0.9640633803420853
1.680790395197599    0.9542113656657789
1.6847423711855931    0.9436600437835884
1.688694347173587    0.9326101386309466
1.692646323161581    0.9212592182664721
1.696598299149575    0.9097970799747099
1.700550275137569    0.898402179988131
1.704502251125563    0.8872391029717874
1.708454227113557    0.8764569945771001
1.712406203101551    0.8661888318947789
1.716358179089545    0.856551380141322
1.720310155077539    0.8476456757748172
1.724262131065533    0.8395578818142406
1.728214107053527    0.8323603757394257
1.732166083041521    0.8261129498554678
1.7361180590295149    0.8208640251774073
1.740070035017509    0.8166518004481675
1.744022011005503    0.81350527644394
1.747973986993497    0.8114451115689938
1.751925962981491    0.8104842777674484
1.755877938969485    0.8106284962380146
1.759829914957479    0.8118764408361259
1.763781890945473    0.8142197040442385
1.767733866933467    0.817642526724677
1.771685842921461    0.8221212993108897
1.775637818909455    0.8276238494050208
1.7795897948974488    0.8341085396457042
1.7835417708854429    0.8415232108004429
1.7874937468734369    0.8498040187518066
1.791445722861431    0.858874230528631
1.795397698849425    0.86864306349777
1.799349674837419    0.8790046724023147
1.803301650825413    0.889837409472229
1.807253626813407    0.9010035008139832
1.811205602801401    0.9123492942479504
1.815157578789395    0.9237062354534502
1.819109554777389    0.9348927160460458
1.823061530765383    0.945716904699488
1.8270135067533768    0.9559806176157237
1.8309654827413708    0.9654842070965641
1.8349174587293648    0.9740323500374801
1.8388694347173589    0.9814405098510939
1.8428214107053529    0.9875417383036841
1.846773386693347    0.9921933941748673
1.850725362681341    0.9952833006945712
1.854677338669335    0.996734858022096
1.858629314657329    0.996510678943142
1.862581290645323    0.9946144244926156
1.866533266633317    0.9910906699523803
1.870485242621311    0.9860228101903086
1.8744372186093048    0.9795291909652086
1.8783891945972988    0.9717578040789435
1.8823411705852928    0.9628799889532969
1.8862931465732868    0.9530836303747574
1.8902451225612809    0.9425663313705248
1.8941970985492749    0.931528980399775
1.8981490745372689    0.920170038471521
1.902101050525263    0.9086807620053816
1.906053026513257    0.8972414675815493
1.910005002501251    0.8860188478057047
1.913956978489245    0.8751642711089679
1.9179089544772387    0.8648129454168234
1.9218609304652328    0.855083795421224
1.9258129064532268    0.8460798923081647
1.9297648824412208    0.8378892786114711
1.9337168584292148    0.8305860445626727
1.9376688344172088    0.8242315315643429
1.9416208104052028    0.8188755597777195
1.9455727863931969    0.8145575978133235
1.9495247623811909    0.8113078115937131
1.953476738369185    0.809147945837692
1.957428714357179    0.808092005100477
1.961380690345173    0.8081467121172285
1.9653326663331667    0.8093117298368537
1.9692846423211607    0.8115796406675579
1.9732366183091548    0.8149356828486876
1.9771885942971488    0.8193572503216262
1.9811405702851428    0.824813169805066
1.9850925462731368    0.8312627777579107
1.9890445222611308    0.8386548312138602
1.9929964982491248    0.8469263005997367
1.9969484742371189    0.8560011098218908
2.000900450225113    0.8657889088983982
2.0048524262131067    0.8761839863829326
2.0088044022011005    0.8870644511037318
2.0127563781890947    0.8982918326815188
2.0167083541770885    0.9097112642015011
2.0206603301650827    0.921152413682394
2.0246123061530765    0.9324313184825
2.0285642821410708    0.9433532436394867
2.0325162581290646    0.9537166278865563
