omega:    Tc: 
0.1    0.8159297378799424
0.10395197598799401    0.8135458338432725
0.107903951975988    0.8120888394751395
0.111855927963982    0.8115666116618364
0.11580790395197599    0.8119818957186331
0.11975987993996999    0.813332406300993
0.12371185592796399    0.8156107641724459
0.12766383191595798    0.8188042903313923
0.131615807903952    0.8228946623794345
0.135567783891946    0.8278574418719522
0.13951975987993998    0.8336614860341229
0.143471735867934    0.8402682629154172
0.14742371185592798    0.8476310959824515
0.15137568784392197    0.8556943723906434
0.15532766383191599    0.8643927586423588
0.15927963981990997    0.8736504777218902
0.16323161580790396    0.8833807124973867
0.16718359179589798    0.893485210255293
0.17113556778389194    0.9038541713685646
0.17508754377188596    0.9143665096221614
0.17903951975987994    0.9248905706861368
0.18299149574787393    0.9352853866130382
0.18694347173586795    0.9454025262333832
0.19089544772386194    0.9550885727384423
0.19484742371185593    0.9641882204618272
0.19879939969984994    0.9725479343180117
0.20275137568784393    0.9800200607829224
0.20670335167583792    0.9864672238463206
0.21065532766383194    0.9917667896925252
0.21460730365182593    0.995815147373158
0.21855927963981991    0.9985315363667843
0.22251125562781393    0.9998611607815466
0.22646323161580792    0.9997773660336986
0.2304152076038019    0.9982827151651414
0.23436718359179592    0.9954088825466265
0.2383191595797899    0.9912153732834939
0.2422711355677839    0.9857871661816491
0.24622311155577792    0.9792314558097875
0.25017508754377193    0.9716737262488819
0.2541270635317659    0.9632534202605134
0.25807903951975986    0.9541194716251837
0.2620310155077539    0.9444259479361389
0.2659829914957479    0.93432801172642
0.2699349674837419    0.9239783565803766
0.2738869434717359    0.9135242191729057
0.2778389194597299    0.9031050144167427
0.28179089544772384    0.8928505938825508
0.28574287143571786    0.8828800902935394
0.2896948474237119    0.8733012842941908
0.2936468234117059    0.8642104135086413
0.2975987993996999    0.8556923368026093
0.30155077538769387    0.8478209667705618
0.30550275137568783    0.8406598887626697
0.30945472736368185    0.834263093342541
0.31340670335167586    0.8286757593178217
0.3173586793396699    0.8239350351665469
0.3213106553276639    0.8200707769194528
0.32526263131565786    0.8171062098121266
0.3292146073036518    0.8150584890270748
0.33316658329164583    0.8139391415528704
0.33711855927963985    0.813754376698191
0.34107053526763387    0.8145052573203313
0.34502251125562783    0.8161877276355745
0.34897448724362184    0.8187924968871166
0.3529264632316158    0.8223047814886648
0.3568784392196098    0.826703911875306
0.36083041520760384    0.8319628145030552
0.36478239119559785    0.8380473845396496
0.36873436718359187    0.8449157710225161
0.3726863431715858    0.8525176037777963
0.3766383191595798    0.8607932002162368
0.3805902951475738    0.8696728000786005
0.3845422711355678    0.879075886874303
0.38849424712356184    0.8889106654074908
0.39244622311155586    0.8990737743174573
0.39639819909954976    0.9094503194991317
0.4003501750875438    0.9199143168033808
0.4043021510755378    0.9303296285253245
0.4082541270635318    0.9405514658756602
0.41220610305152583    0.9504285072673957
0.41615807903951973    0.9598056490185117
0.42011005502751375    0.9685273614313278
0.42406203101550777    0.9764415713178818
0.4280140070035018    0.9834039359688315
0.4319659829914958    0.9892823191907535
0.4359179589794898    0.9939612345152814
0.4398699349674837    0.9973459914573084
0.44382191095547774    0.9993662741939495
0.44777388694347176    0.9999789022564047
0.45172586293146577    0.9991695702077718
0.4556778389194598    0.9969534341244652
0.4596298149074538    0.9933744994424416
0.4635817908954477    0.9885038570582465
0.4675337668834417    0.9824369011851635
0.47148574287143574    0.9752897330613877
0.47543771885942976    0.9671950016594217
0.4793896948474238    0.9582974523992893
0.4833416708354178    0.9487494480011367
0.4872936468234117    0.9387066960687476
0.4912456228114057    0.9283243722271839
0.49519759879939973    0.9177537731037626
0.49914957478739375    0.9071395772954773
0.5031015507753878    0.8966177405782534
0.5070535267633818    0.886314008040108
0.5110055027513757    0.876342992697916
0.5149574787393697    0.8668077479288656
0.5189094547273637    0.8577997488758242
0.5228614307153577    0.8493991942299819
0.5268134067033517    0.841675542448769
0.5307653826913458    0.8346882035061147
0.5347173586793397    0.8284873168818419
0.5386693346673337    0.8231145572009453
0.5426213106553277    0.8186039196351015
0.5465732866433217    0.8149824471440941
0.5505252626313157    0.8122708704443976
0.5544772386193096    0.8104841390766079
0.5584292146073037    0.8096318281218234
0.5623811905952977    0.8097184101398713
0.5663331665832917    0.8107433860078901
0.5702851425712857    0.8127012718179769
0.5742371185592797    0.8155814421695308
0.5781890945472736    0.8193678333998883
0.5821410705352676    0.8240385138689433
0.5860930465232617    0.8295651326666672
0.5900450225112557    0.8359122633296271
0.5939969984992497    0.8430366655568152
0.5979489744872437    0.8508864956340896
0.6019009504752376    0.8594005052961895
0.6058529264632316    0.8685072788625983
0.6098049024512256    0.8781245692026545
0.6137568784392197    0.8881588036170084
0.6177088544272136    0.8985048399000455
0.6216608304152076    0.9090460591294911
0.6256128064032016    0.9196548832562985
0.6295647823911956    0.9301938003068446
0.6335167583791896    0.9405169660080397
0.6374687343671837    0.9504724263948746
0.6414207103551776    0.959904970843167
0.6453726863431716    0.9686595797335709
0.6493246623311656    0.9765853780906004
0.6532766383191596    0.9835399504627682
0.6572286143071536    0.9893938191628018
0.6611805902951476    0.9940348450326412
0.6651325662831415    0.9973722844661516
0.6690845422711356    0.9993402345665012
0.6730365182591296    0.999900223438029
0.6769884942471236    0.9990427544082043
0.6809404702351176    0.9967876870116572
0.6848924462231116    0.9931834257128953
0.6888444222111055    0.9883049790162712
0.6927963981990996    0.982251035609807
0.6967483741870936    0.9751402706662433
0.7007003501750876    0.9671071375395635
0.7046523261630816    0.9582974149694985
0.7086043021510756    0.9488637687180054
0.7125562781390695    0.9389615538538223
0.7165082541270635    0.9287450363624825
0.7204602301150576    0.9183641578268307
0.7244122061030516    0.9079619115275301
0.7283641820910456    0.8976723479843458
0.7323161580790395    0.8876191863807972
0.7362681340670335    0.8779149772879113
0.7402201100550275    0.8686607418119777
0.7441720860430215    0.8599460017353289
0.7481240620310156    0.8518491126821366
0.7520760380190096    0.844437815811679
0.7560280140070035    0.8377699310374435
0.7599799899949975    0.8318941245469491
0.7639319659829915    0.8268506940572016
0.7678839419709855    0.8226723257633157
0.7718359179589795    0.8193847866555235
0.7757878939469736    0.8170075244267564
0.7797398699349675    0.815554154441311
0.7836918459229615    0.815032819234416
0.7876438219109555    0.8154464109357081
0.7915957978989495    0.816792651111075
0.7955477738869435    0.8190640261008093
0.7994997498749375    0.8222475793278838
0.8034517258629315    0.8263245655972589
0.8074037018509255    0.8312699764380016
0.8113556778389195    0.8370519503631338
0.8153076538269135    0.8436310877998983
0.8192596298149075    0.8509596975609817
0.8232116058029015    0.8589810101526073
0.8271635817908954    0.8676284028447716
0.8311155577788895    0.8768246919277465
0.8350675337668835    0.8864815583169667
0.8390195097548775    0.8964991826654622
0.8429714857428715    0.9067661740410323
0.8469234617308655    0.9171598803099839
0.8508754377188594    0.9275471666675827
0.8548274137068534    0.9377857392344024
0.8587793896948475    0.9477260715148996
0.8627313656828415    0.9572139616702438
0.8666833416708355    0.9660937080079008
0.8706353176588294    0.974211840430192
0.8745872936468234    0.9814212902830363
0.8785392696348174    0.9875858254566805
0.8824912456228114    0.992584528552469
0.8864432216108055    0.9963160609235882
0.8903951975987995    0.9987024413156099
0.8943471735867934    0.999692079572348
0.8982991495747874    0.9992618450704402
0.9022511255627814    0.9974180137990285
0.9062031015507754    0.9941960208601516
0.9101550775387695    0.9896590369998992
0.9141070535267635    0.9838954773746298
0.9180590295147574    0.9770156272868602
0.9220110055027514    0.969147624542948
0.9259629814907454    0.9604330664621968
0.9299149574787394    0.9510225106296617
0.9338669334667334    0.9410711152811831
0.9378189094547275    0.9307346236008993
0.9417708854427214    0.9201658435079554
0.9457228614307154    0.9095117180915344
0.9496748374187094    0.8989110280753898
0.9536268134067034    0.8884927212052938
0.9575787893946974    0.8783748269739822
0.9615307653826914    0.8686638895540741
0.9654827413706853    0.8594548367027625
0.9694347173586794    0.850831196285375
0.9733866933466734    0.842865572997805
0.9773386693346674    0.835620303795735
0.9812906453226614    0.8291482195612124
0.9852426213106554    0.8234934510634245
0.9891945972986493    0.8186922280851978
0.9931465732866434    0.8147736308477528
0.9970985492746374    0.8117602620635107
1.0010505252626314    0.8096688158410894
1.0050025012506254    0.8085105262259769
1.0089544772386194    0.8082914835002485
1.0129064532266134    0.8090128107010607
1.0168584292146075    0.8106706964291422
1.0208104052026015    0.8132562832205579
1.0247623811905955    0.8167554138806192
1.0287143571785895    0.8211482415642255
1.0326663331665833    0.8264087133579612
1.0366183091545773    0.8325039419748419
1.0405702851425713    0.8393934861621808
1.0445222611305653    0.8470285677143505
1.0484742371185594    0.8553512616187309
1.0524262131065534    0.8642937057087747
1.0563781890945474    0.8737773868754916
1.0603301650825414    0.8837125717134968
1.0642821410705354    0.8939979594065273
1.0682341170585294    0.904520642263501
1.0721860930465235    0.9151564628207014
1.0761380690345175    0.9257708538092517
1.0800900450225113    0.936220236505523
1.0840420210105053    0.946354032297692
1.0879939969984993    0.9560173107133212
1.0919459729864933    0.9650540548759354
1.0958979489744873    0.973310974262042
1.0998499249624814    0.9806417385010451
1.1038019009504754    0.9869114504589598
1.1077538769384694    0.9920011290364543
1.1117058529264634    0.9958119395382378
1.1156578289144574    0.9982688988735473
1.1196098049024514    0.9993237987390515
1.1235617808904454    0.9989571333734604
1.1275137568784395    0.9971788863836146
1.1314657328664335    0.9940281164512418
1.1354177088544273    0.9895713743707002
1.1393696848424213    0.9839000724827167
1.1433216608304153    0.9771270015180811
1.1472736368184093    0.9693822410652035
1.1512256128064033    0.9608087340333249
1.1551775887943974    0.9515577924835252
1.1591295647823914    0.9417847756420583
1.1630815407703854    0.9316451370095331
1.1670335167583794    0.9212909836662189
1.1709854927463734    0.9108682344450996
1.1749374687343674    0.9005144107225023
1.1788894447223615    0.890357048508932
1.1828414207103553    0.8805126857237076
1.1867933966983493    0.8710863546724211
1.1907453726863433    0.8621714961338359
1.1946973486743373    0.853850206547145
1.1986493246623313    0.8461937315930874
1.2026013006503253    0.8392631259420488
1.2065532766383193    0.8331100082446692
1.2105052526263134    0.827777351036775
1.2144572286143074    0.8233002559709445
1.2184092046023014    0.8197066748900443
1.2223611805902954    0.8170180462653451
1.2263131565782894    0.815249824235649
1.2302651325662832    0.8144118839038541
1.2342171085542772    0.8145087918135931
1.2381690845422713    0.8155399348746453
1.2421210605302653    0.8174995047242055
1.2460730365182593    0.8203763379270231
1.2500250125062533    0.8241536158697738
1.2539769884942473    0.8288084320312579
1.2579289644822413    0.8343112388290783
1.2618809404702354    0.840625191736666
1.2658329164582294    0.8477054150472358
1.2697848924462234    0.8554982216459646
1.2737368684342172    0.8639403283988933
1.2776888444222112    0.8729581190271604
1.2816408204102052    0.8824670170843745
1.2855927963981992    0.8923710420359502
1.2895447723861932    0.9025626302216749
1.2934967483741873    0.9129228080655549
1.2974487243621813    0.9233218053762327
1.3014007003501753    0.9336201899131811
1.3053526763381693    0.9436705886663046
1.3093046523261633    0.9533200351102471
1.3132566283141573    0.9624129446240344
1.3172086043021514    0.9707946733252029
1.3211605802901452    0.9783155615724985
1.3251125562781392    0.9848353070852149
1.3290645322661332    0.9902274604321744
1.3330165082541272    0.9943837949652412
1.3369684842421212    0.9972182813838183
1.3409204602301152    0.9986703997757004
1.3448724362181093    0.9987075520658801
1.3488244122061033    0.9973263943317365
1.3527763881940973    0.9945529862606262
1.3567283641820913    0.9904417453923038
1.3606803401700853    0.9850732857558444
1.3646323161580791    0.9785513028343701
1.3685842921460731    0.9709987299142437
1.3725362681340672    0.9625534285136897
1.3764882441220612    0.9533636855562118
1.3804402201100552    0.9435837741281012
1.3843921960980492    0.9333697981412316
1.3883441720860432    0.9228759910521576
1.3922961480740372    0.9122515825184887
1.3962481240620312    0.9016382913422156
1.4002001000500253    0.8911684535490804
1.4041520760380193    0.8809637543555551
1.4081040520260133    0.8711345035641282
1.412056028014007    0.8617793755133545
1.416008004002001    0.8529855258855503
1.4199599799899951    0.8448289965971231
1.4239119559779891    0.8373753245946103
1.4278639319659832    0.8306802786657719
1.4318159079539772    0.8247906586368294
1.4357678839419712    0.8197451022179291
1.4397198599299652    0.8155748553163313
1.4436718359179592    0.8123044712491783
1.4476238119059532    0.8099524126371362
1.4515757878939473    0.8085315367573322
1.4555277638819413    0.8080494508565818
1.459479739869935    0.8085087285660304
1.463431715857929    0.8099069823825329
1.467383691845923    0.812236790500898
1.4713356678339171    0.8154854794288193
1.4752876438219111    0.8196347671346831
1.4792396198099051    0.8246602753034207
1.4831915957978992    0.8305309239217082
1.4871435717858932    0.8372082271532212
1.4910955477738872    0.8446455164969494
1.4950475237618812    0.8527871256335746
1.4989994997498752    0.8615675810771433
1.502951475737869    0.870910853453205
1.506903451725863    0.8807297353157597
1.510855427713857    0.8909254219321597
1.514807403701851    0.9013873800545467
1.518759379689845    0.9119935946248696
1.522711355677839    0.9226112826050828
1.5266633316658331    0.9330981545612405
1.5306153076538271    0.943304286347926
1.5345672836418212    0.9530746339567466
1.5385192596298152    0.9622521841515692
1.5424712356178092    0.970681683355733
1.5464232116058032    0.9782138307589703
1.550375187593797    0.9847097641363451
1.554327163581791    0.9900456153966297
1.558279139569785    0.9941168751575653
1.562231115557779    0.9968422889504409
1.566183091545773    0.9981670173029453
1.570135067533767    0.9980648299450845
1.574087043521761    0.9965391685627131
1.5780390195097551    0.9936229964787582
1.5819909954977491    0.9893774475703462
1.5859429714857431    0.9838893790673939
1.5898949474737372    0.9772680123559702
1.5938469234617312    0.9696409035371756
1.597798899449725    0.9611495159906307
1.601750875437719    0.9519446695842669
1.605702851425713    0.942182118466693
1.609654827413707    0.9320184675359948
1.613606803401701    0.9216075841965116
1.617558779389695    0.9110976044976502
1.621510755377689    0.9006285777603845
1.625462731365683    0.890330746155001
1.629414707353677    0.8803234182271811
1.6333666833416711    0.8707143690584995
1.6373186593296651    0.8615996841049112
1.641270635317659    0.8530639573140607
1.645222611305653    0.8451807549014037
1.649174587293647    0.8380132620689632
1.653126563281641    0.8316150390370676
1.657078539269635    0.826030823403732
1.661030515257629    0.8212973268064017
1.664982491245623    0.8174439842764116
1.668934467233617    0.8144936240265392
1.672886443221611    0.8124630334521029
1.676838419209605    0.8113634038229565
1.680790395197599    0.8112006416154354
1.6847423711855931    0.8119755388997779
1.688694347173587    0.8136837989438396
1.692646323161581    0.8163159165391878
1.696598299149575    0.8198569158391882
1.700550275137569    0.8242859520610233
1.704502251125563    0.8295757875725959
1.708454227113557    0.8356921579589984
1.712406203101551    0.8425930498854576
1.716358179089545    0.8502279201008252
1.720310155077539    0.8585368937820195
1.724262131065533    0.8674499904414048
1.728214107053527    0.8768864363909723
1.732166083041521    0.8867541335481703
1.7361180590295149    0.8969493640813455
1.740070035017509    0.9073568175454477
1.744022011005503    0.9178500299223911
1.747973986993497    0.9282923203037822
1.751925962981491    0.9385382987919624
1.755877938969485    0.9484359968584208
1.759829914957479    0.9578296379939983
1.763781890945473    0.966563022407116
1.767733866933467    0.9744834468875464
1.771685842921461    0.9814460238320998
1.775637818909455    0.987318207783465
1.7795897948974488    0.9919842909777136
1.7835417708854429    0.9953495990101168
1.7874937468734369    0.9973441105104972
1.791445722861431    0.9979252449227043
1.795397698849425    0.9970796106950475
1.799349674837419    0.9948235787063304
1.803301650825413    0.991202634819025
1.807253626813407    0.9862895603973449
1.811205602801401    0.9801815787035842
1.815157578789395    0.9729966775623141
1.819109554777389    0.9648693667119319
1.823061530765383    0.9559461480628991
1.8270135067533768    0.9463809692082119
1.8309654827413708    0.9363308992749836
1.8349174587293648    0.9259522183646264
1.8388694347173589    0.915397055216479
1.8428214107053529    0.9048106497938924
1.846773386693347    0.8943292642909475
1.850725362681341    0.8840787217192465
1.854677338669335    0.8741735178658304
1.858629314657329    0.8647164303592213
1.862581290645323    0.8557985368738379
1.866533266633317    0.8474995513694585
1.870485242621311    0.8398883905822445
1.8744372186093048    0.833023890646549
1.8783891945972988    0.8269556038655828
1.8823411705852928    0.8217246167630811
1.8862931465732868    0.817364341537901
1.8902451225612809    0.8139012431871995
1.8941970985492749    0.8113554734624584
1.8981490745372689    0.8097413903313557
1.902101050525263    0.8090679477815146
1.906053026513257    0.8093389457945058
1.910005002501251    0.8105531344013689
1.913956978489245    0.8127041692180257
1.9179089544772387    0.8157804190933137
1.9218609304652328    0.8197646298385792
1.9258129064532268    0.8246334517990439
1.9297648824412208    0.8303568436089097
1.9337168584292148    0.8368973701426841
1.9376688344172088    0.844209419666248
1.9416208104052028    0.8522383736278156
1.9455727863931969    0.860919772375778
1.9495247623811909    0.870178531086508
1.953476738369185    0.8799282717711976
1.957428714357179    0.8900708484809596
1.961380690345173    0.9004961524026485
1.9653326663331667    0.9110822896777326
1.9692846423211607    0.9216962253821619
1.9732366183091548    0.9321949799134431
1.9771885942971488    0.9424274469209378
1.9811405702851428    0.9522368733434659
1.9850925462731368    0.9614640016423619
1.9890445222611308    0.9699508231302814
1.9929964982491248    0.9775448326292295
1.9969484742371189    0.9841036139442592
2.000900450225113    0.9894995300599386
2.0048524262131067    0.9936242498190289
2.0088044022011005    0.9963928220873437
2.0127563781890947    0.9977470151108259
2.0167083541770885    0.9976576755756533
2.0206603301650827    0.996125926982793
2.0246123061530765    0.9931831139015003
2.0285642821410708    0.9888894972200366
