omega:    Tc: 
0.1    0.8109876910389984
0.10395197598799401    0.8113695900934996
0.107903951975988    0.8129128929815487
0.111855927963982    0.8156070902845176
0.11580790395197599    0.8194334944726387
0.11975987993996999    0.8243646177411547
0.12371185592796399    0.8303633083786517
0.12766383191595798    0.8373816772462384
0.131615807903952    0.8453598603076928
0.135567783891946    0.8542246808632262
0.13951975987993998    0.8638882962244234
0.143471735867934    0.874246937415216
0.14742371185592798    0.8851798756272252
0.15137568784392197    0.8965487730630957
0.15532766383191599    0.9081975947361959
0.15927963981990997    0.9199532668737627
0.16323161580790396    0.9316272610910674
0.16718359179589798    0.9430182556760629
0.17113556778389194    0.9539159714386962
0.17508754377188596    0.9641061975479437
0.17903951975987994    0.973376914797877
0.18299149574787393    0.9815252976358093
0.18694347173586795    0.9883652459600953
0.19089544772386194    0.9937349821516528
0.19484742371185593    0.9975041693972688
0.19879939969984994    0.999579983550123
0.20275137568784393    0.9999116151903696
0.20670335167583792    0.9984927928031164
0.21065532766383194    0.9953620906372416
0.21460730365182593    0.9906009925230275
0.21855927963981991    0.9843298949140227
0.22251125562781393    0.9767024169640909
0.22646323161580792    0.9678985167399737
0.2304152076038019    0.9581169758986134
0.23436718359179592    0.9475678085899832
0.2383191595797899    0.9364650840563391
0.2422711355677839    0.9250205445063129
0.24622311155577792    0.9134382716327725
0.25017508754377193    0.9019105265398434
0.2541270635317659    0.8906147742329642
0.25807903951975986    0.8797118146229255
0.2620310155077539    0.869344880768413
0.2659829914957479    0.859639530721757
0.2699349674837419    0.8507041476862971
0.2738869434717359    0.8426308686244568
0.2778389194597299    0.835496778178717
0.28179089544772384    0.829365227653478
0.28574287143571786    0.8242871638179436
0.2896948474237119    0.8203023765976107
0.2936468234117059    0.8174405966047009
0.2975987993996999    0.8157223921110432
0.30155077538769387    0.8151598303744801
0.30550275137568783    0.8157568805580352
0.30945472736368185    0.8175095455076805
0.31340670335167586    0.8204057182438375
0.3173586793396699    0.8244247671342801
0.3213106553276639    0.8295368623422741
0.32526263131565786    0.8357020662462316
0.3292146073036518    0.8428692229733316
0.33316658329164583    0.8509746976611691
0.33711855927963985    0.8599410349263392
0.34107053526763387    0.8696756281584017
0.34502251125562783    0.8800695158562306
0.34897448724362184    0.8909964465384801
0.3529264632316158    0.9023123769211912
0.3568784392196098    0.9138555849707504
0.36083041520760384    0.9254475849065945
0.36478239119559785    0.9368950193687813
0.36873436718359187    0.9479926690866882
0.3726863431715858    0.9585276582745107
0.3766383191595798    0.9682848435318482
0.3805902951475738    0.9770532589000337
0.3845422711355678    0.9846333595171224
0.38849424712356184    0.9908446766880527
0.39244622311155586    0.995533388388709
0.39639819909954976    0.9985792428435667
0.4003501750875438    0.9999012671700485
0.4043021510755378    0.9994617582498952
0.4082541270635318    0.9972681870065965
0.41220610305152583    0.9933728349013995
0.41615807903951973    0.9878701963459791
0.42011005502751375    0.9808923906214035
0.42406203101550777    0.9726030006180195
0.4280140070035018    0.9631898698128485
0.4319659829914958    0.9528574320636682
0.4359179589794898    0.9418191229641624
0.4398699349674837    0.9302903397450963
0.44382191095547774    0.918482298902835
0.44777388694347176    0.9065970085664061
0.45172586293146577    0.8948234452558101
0.4556778389194598    0.8833349160794791
0.4596298149074538    0.8722875053158763
0.4635817908954477    0.861819450776733
0.4675337668834417    0.8520512681096675
0.47148574287143574    0.843086435412058
0.47543771885942976    0.8350124602940237
0.4793896948474238    0.8279021710703727
0.4833416708354178    0.821815098155897
0.4872936468234117    0.8167988372408899
0.4912456228114057    0.8128903099059639
0.49519759879939973    0.8101168585449956
0.49914957478739375    0.8084971302093662
0.5031015507753878    0.8080417183018362
0.5070535267633818    0.8087535423981793
0.5110055027513757    0.8106279555916387
0.5149574787393697    0.813652576526641
0.5189094547273637    0.8178068506770121
0.5228614307153577    0.823061353412496
0.5268134067033517    0.8293768569366626
0.5307653826913458    0.8367031951291255
0.5347173586793397    0.844977975367865
0.5386693346673337    0.8541252049256891
0.5426213106553277    0.8640539214410901
0.5465732866433217    0.8746569414923373
0.5505252626313157    0.8858098667784532
0.5544772386193096    0.8973705110401665
0.5584292146073037    0.9091789286212664
0.5623811905952977    0.9210582323265455
0.5663331665832917    0.9328163781030137
0.5702851425712857    0.9442490612823904
0.5742371185592797    0.9551438092721263
0.5781890945472736    0.9652852672507424
0.5821410705352676    0.9744615598472552
0.5860930465232617    0.9824714820958933
0.5900450225112557    0.9891321424010979
0.5939969984992497    0.994286568834293
0.5979489744872437    0.9978107194681824
0.6019009504752376    0.9996193263865112
0.6058529264632316    0.999670062354173
0.6098049024512256    0.9979656479303474
0.6137568784392197    0.9945537008066265
0.6177088544272136    0.9895243427132716
0.6216608304152076    0.9830057903763854
0.6256128064032016    0.9751583342844502
0.6295647823911956    0.9661672282536763
0.6335167583791896    0.9562350616736717
0.6374687343671837    0.9455741658280314
0.6414207103551776    0.9343995281234946
0.6453726863431716    0.9229225728813613
0.6493246623311656    0.911346036160616
0.6532766383191596    0.8998600342978168
0.6572286143071536    0.8886393158069439
0.6611805902951476    0.8778416021795734
0.6651325662831415    0.8676068674192654
0.6690845422711356    0.858057376889394
0.6730365182591296    0.8492982985830222
0.6769884942471236    0.841418708416381
0.6809404702351176    0.8344928298307311
0.6848924462231116    0.8285813718915727
0.6888444222111055    0.8237328553864802
0.6927963981990996    0.819984840544417
0.6967483741870936    0.8173649914169793
0.7007003501750876    0.81589193003788
0.7046523261630816    0.8155758482199555
0.7086043021510756    0.8164188567113495
0.7125562781390695    0.8184150611492673
0.7165082541270635    0.82155036271777
0.7204602301150576    0.8258019896119296
0.7244122061030516    0.831137774325042
0.7283641820910456    0.8375152023548746
0.7323161580790395    0.8448802710000002
0.7362681340670335    0.8531662131045424
0.7402201100550275    0.8622921601743885
0.7441720860430215    0.8721618419630189
0.7481240620310156    0.8826624443950681
0.7520760380190096    0.8936637725721962
0.7560280140070035    0.9050178874472486
0.7599799899949975    0.9165593992111472
0.7639319659829915    0.9281066021388049
0.7678839419709855    0.9394636187141545
0.7718359179589795    0.950423679888218
0.7757878939469736    0.9607735997466285
0.7797398699349675    0.9702994065938083
0.7836918459229615    0.9787929734819161
0.7876438219109555    0.9860593605374828
0.7915957978989495    0.9919244558823155
0.7955477738869435    0.9962424022409997
0.7994997498749375    0.9989022435294297
0.8034517258629315    0.9998332364371646
0.8074037018509255    0.999008353647878
0.8113556778389195    0.996445652794434
0.8153076538269135    0.9922073804824725
0.8192596298149075    0.9863968956803773
0.8232116058029015    0.9791536991293015
0.8271635817908954    0.9706470155600496
0.8311155577788895    0.9610684727225052
0.8350675337668835    0.950624447433875
0.8390195097548775    0.9395286088236241
0.8429714857428715    0.9279950976480498
0.8469234617308655    0.9162326585072371
0.8508754377188594    0.9044399102530544
0.8548274137068534    0.892801816803453
0.8587793896948475    0.8814873183991367
0.8627313656828415    0.8706480083486072
0.8666833416708355    0.8604176934267439
0.8706353176588294    0.8509126543571743
0.8745872936468234    0.8422324210532949
0.8785392696348174    0.8344608896140011
0.8824912456228114    0.8276676288921451
0.8864432216108055    0.8219092491479559
0.8903951975987995    0.8172307304352371
0.8943471735867934    0.813666631698152
0.8982991495747874    0.811242121856961
0.9022511255627814    0.8099737910084186
0.9062031015507754    0.8098702134142739
0.9101550775387695    0.8109322447395941
0.9141070535267635    0.8131530448117562
0.9180590295147574    0.816517824916027
0.9220110055027514    0.8210033263028298
0.9259629814907454    0.8265770451400407
0.9299149574787394    0.833196229540053
0.9338669334667334    0.8408066873497966
0.9378189094547275    0.8493414597231737
0.9417708854427214    0.8587194353572893
0.9457228614307154    0.8688440033850976
0.9496748374187094    0.879601868235238
0.9536268134067034    0.8908621752576051
0.9575787893946974    0.9024761183520131
0.9615307653826914    0.9142772157688959
0.9654827413706853    0.9260824421617995
0.9694347173586794    0.9376943878337036
0.9733866933466734    0.9489045743764465
0.9773386693346674    0.9594979858933078
0.9812906453226614    0.9692587766510439
0.9852426213106554    0.9779769944739145
0.9891945972986493    0.9854560258129246
0.9931465732866434    0.9915203404920832
0.9970985492746374    0.9960230129279852
1.0010505252626314    0.9988524436764411
1.0050025012506254    0.9999377173614215
1.0089544772386194    0.9992521177224802
1.0129064532266134    0.9968144721518379
1.0168584292146075    0.9926881979121368
1.0208104052026015    0.9869781413116246
1.0247623811905955    0.9798255063669221
1.0287143571785895    0.9714013308195002
1.0326663331665833    0.9618990640272518
1.0366183091545773    0.9515268254298157
1.0405702851425713    0.9404998793387134
1.0445222611305653    0.9290337673285178
1.0484742371185594    0.9173384146086757
1.0524262131065534    0.9056133930454573
1.0563781890945474    0.8940443991108284
1.0603301650825414    0.8828009023483492
1.0642821410705354    0.8720348450989226
1.0682341170585294    0.8618802279237883
1.0721860930465235    0.8524533942224184
1.0761380690345175    0.8438538266286912
1.0800900450225113    0.836165280859536
1.0840420210105053    0.8294571041466265
1.0879939969984993    0.8237856105553159
1.0919459729864933    0.8191954109651312
1.0958979489744873    0.8157206190336694
1.0998499249624814    0.8133858749019849
1.1038019009504754    0.812207145337061
1.1077538769384694    0.8121922726327226
1.1117058529264634    0.8133412554737176
1.1156578289144574    0.8156462539125434
1.1196098049024514    0.8190913185486397
1.1235617808904454    0.8236518519243272
1.1275137568784395    0.8292938190503027
1.1314657328664335    0.8359727347768325
1.1354177088544273    0.8436324692358743
1.1393696848424213    0.8522039293610839
1.1433216608304153    0.861603694734174
1.1472736368184093    0.8717327093248096
1.1512256128064033    0.8824751559120985
1.1551775887943974    0.8936976649035889
1.1591295647823914    0.9052490305198113
1.1630815407703854    0.9169606202914008
1.1670335167583794    0.9286476629432778
1.1709854927463734    0.9401115790583404
1.1749374687343674    0.9511434731307696
1.1788894447223615    0.9615288315781596
1.1828414207103553    0.9710533696503292
1.1867933966983493    0.9795098469840702
1.1907453726863433    0.9867055390263446
1.1946973486743373    0.99246992759547
1.1986493246623313    0.9966620798486059
1.2026013006503253    0.9991771417955442
1.2065532766383193    0.9999513957605126
1.2105052526263134    0.9989654262627108
1.2144572286143074    0.9962450980800119
1.2184092046023014    0.9918602533430234
1.2223611805902954    0.9859212516618447
1.2263131565782894    0.9785736757380927
1.2302651325662832    0.969991675941414
1.2342171085542772    0.9603705122030485
1.2381690845422713    0.9499188646590375
1.2421210605302653    0.938851432872372
1.2460730365182593    0.9273822437864802
1.2500250125062533    0.9157189620950297
1.2539769884942473    0.9040583645424598
1.2579289644822413    0.8925830189834713
1.2618809404702354    0.8814591111488932
1.2658329164582294    0.8708352921734152
1.2697848924462234    0.8608423780484535
1.2737368684342172    0.851593714699959
1.2776888444222112    0.8431860238866707
1.2816408204102052    0.8357005596117645
1.2855927963981992    0.8292044267765238
1.2895447723861932    0.823751938951585
1.2934967483741873    0.8193859171961231
1.2974487243621813    0.8161388547864227
1.3014007003501753    0.8140338924791561
1.3053526763381693    0.8130855652483808
1.3093046523261633    0.8133002945554143
1.3132566283141573    0.8146766107502929
1.3172086043021514    0.8172050989917674
1.3211605802901452    0.820868070057468
1.3251125562781392    0.8256389655914881
1.3290645322661332    0.8314815166889513
1.3330165082541272    0.838348686162063
1.3369684842421212    0.8461814391369478
1.3409204602301152    0.8549074043003646
1.3448724362181093    0.8644395092365469
1.3488244122061033    0.8746746973343489
1.3527763881940973    0.8854928593219945
1.3567283641820913    0.8967561371483869
1.3606803401700853    0.9083087780031012
1.3646323161580791    0.9199777268766531
1.3685842921460731    0.9315741414349675
1.3725362681340672    0.9428959871421876
1.3764882441220612    0.9537318184902086
1.3804402201100552    0.9638657713595643
1.3843921960980492    0.973083683644473
1.3883441720860432    0.981180133701846
1.3922961480740372    0.9879660525891996
1.3962481240620312    0.9932764455393698
1.4002001000500253    0.9969776725883033
1.4041520760380193    0.9989737081721868
1.4081040520260133    0.9992108387407256
1.412056028014007    0.9976803688360487
1.416008004002001    0.9944190790647389
1.4199599799899951    0.9895073907943144
1.4239119559779891    0.9830654108326835
1.4278639319659832    0.9752472218322032
1.4318159079539772    0.966233923323995
1.4357678839419712    0.9562259978798047
1.4397198599299652    0.9454355742001643
1.4436718359179592    0.9340790936848689
1.4476238119059532    0.9223707776677064
1.4515757878939473    0.9105171610080272
1.4555277638819413    0.8987128249583306
1.459479739869935    0.8871373444024352
1.463431715857929    0.8759533717278996
1.467383691845923    0.8653057156768067
1.4713356678339171    0.8553212374934102
1.4752876438219111    0.8461093742957184
1.4792396198099051    0.8377631050202873
1.4831915957978992    0.8303601914918298
1.4871435717858932    0.8239645507981568
1.4910955477738872    0.8186276409884952
1.4950475237618812    0.8143897671975986
1.4989994997498752    0.8112812378257129
1.502951475737869    0.8093233195233756
1.506903451725863    0.8085289553036512
1.510855427713857    0.8089032224924695
1.514807403701851    0.8104435171108091
1.518759379689845    0.8131394595309152
1.522711355677839    0.8169725238328603
1.5266633316658331    0.8219154012143299
1.5306153076538271    0.8279311170666527
1.5345672836418212    0.8349719328411663
1.5385192596298152    0.8429780783556118
1.5424712356178092    0.8518763782235228
1.5464232116058032    0.8615788576899545
1.550375187593797    0.8719814377421069
1.554327163581791    0.8829628554696769
1.558279139569785    0.8943839707029855
1.562231115557779    0.9060876401221609
1.566183091545773    0.917899350241056
1.570135067533767    0.9296287949587163
1.574087043521761    0.9410725556199344
1.5780390195097551    0.9520179866845502
1.5819909954977491    0.9622483258181898
1.5859429714857431    0.9715489356053606
1.5898949474737372    0.9797144532060729
1.5938469234617312    0.9865564886470435
1.597798899449725    0.991911392015232
1.601750875437719    0.995647527107193
1.605702851425713    0.9976714645921192
1.609654827413707    0.9979325547290707
1.613606803401701    0.996425459663142
1.617558779389695    0.9931904059844274
1.621510755377689    0.9883111347286458
1.625462731365683    0.9819107457710865
1.629414707353677    0.9741458233786253
1.6333666833416711    0.9651993628495306
1.6373186593296651    0.9552730798464704
1.641270635317659    0.9445796731976586
1.645222611305653    0.9333355398676237
1.649174587293647    0.9217543268830841
1.653126563281641    0.9100415715823058
1.657078539269635    0.8983905492064457
1.661030515257629    0.8869793311596599
1.664982491245623    0.875968967496866
1.668934467233617    0.8655026465584867
1.672886443221611    0.8557056516147818
1.676838419209605    0.8466859243435993
1.680790395197599    0.8385350520194383
1.6847423711855931    0.8313295134455871
1.688694347173587    0.82513204268576
1.692646323161581    0.8199929954869466
1.696598299149575    0.8159516281229501
1.700550275137569    0.8130372205556877
1.704502251125563    0.8112699945572098
1.708454227113557    0.8106617926928639
1.712406203101551    0.8112164962405561
1.716358179089545    0.8129301699184719
1.720310155077539    0.8157909295960852
1.724262131065533    0.8197785369410195
1.728214107053527    0.8248637332038524
1.732166083041521    0.8310073340329636
1.7361180590295149    0.8381591192217801
1.740070035017509    0.8462565663265864
1.744022011005503    0.8552234955641626
1.747973986993497    0.8649687152523471
1.751925962981491    0.8753847815701306
1.755877938969485    0.8863470119628998
1.759829914957479    0.8977129153658984
1.763781890945473    0.9093222205959821
1.767733866933467    0.9209976916410526
1.771685842921461    0.9325469092564149
1.775637818909455    0.9437651663805375
1.7795897948974488    0.9544395658095766
1.7835417708854429    0.9643543206208108
1.7874937468734369    0.973297143922949
1.791445722861431    0.9810664834961547
1.795397698849425    0.9874792239114378
1.799349674837419    0.9923783639924055
1.803301650825413    0.9956401032062581
1.807253626813407    0.9971797563459529
1.811205602801401    0.9969559735164274
1.815157578789395    0.9949728717693873
1.819109554777389    0.9912798717706839
1.823061530765383    0.9859692515979099
1.8270135067533768    0.9791716471492431
1.8309654827413708    0.9710499118785891
1.8349174587293648    0.9617918721559824
1.8388694347173589    0.9516025653138942
1.8428214107053529    0.9406965261286434
1.846773386693347    0.9292906068508452
1.850725362681341    0.9175976962846387
1.854677338669335    0.9058215674688908
1.858629314657329    0.8941529515301934
1.862581290645323    0.8827668221763036
1.866533266633317    0.8718207894897128
1.870485242621311    0.8614544455303894
1.8744372186093048    0.8517894755341704
1.8783891945972988    0.8429303421703366
1.8823411705852928    0.8349653602337587
1.8862931465732868    0.8279679992482658
1.8902451225612809    0.8219982765973989
1.8941970985492749    0.8171041300687358
1.8981490745372689    0.813322683469627
1.902101050525263    0.8106813407485166
1.906053026513257    0.8091986622377556
1.910005002501251    0.8088849912792218
1.913956978489245    0.8097428111044283
1.9179089544772387    0.8117668211971611
1.9218609304652328    0.8149437304092865
1.9258129064532268    0.8192517718496185
1.9297648824412208    0.8246599530614757
1.9337168584292148    0.8311270652542699
1.9376688344172088    0.838600488265828
1.9416208104052028    0.8470148442183678
1.9455727863931969    0.8562905728711894
1.9495247623811909    0.866332525322553
1.953476738369185    0.877028699067088
1.957428714357179    0.8882492645512412
1.961380690345173    0.899846058120392
1.9653326663331667    0.9116527340979388
1.9692846423211607    0.9234857739333744
1.9732366183091548    0.9351465364331546
1.9771885942971488    0.9464244938294517
1.9811405702851428    0.9571017293722813
1.9850925462731368    0.9669586723631101
1.9890445222611308    0.9757809206348163
1.9929964982491248    0.9833668596782412
1.9969484742371189    0.9895356498563344
2.000900450225113    0.9941350411597637
2.0048524262131067    0.9970484123564258
2.0088044022011005    0.9982004373018245
2.0127563781890947    0.9975608647340852
2.0167083541770885    0.9951460542779498
2.0206603301650827    0.9910181211820719
2.0246123061530765    0.9852817746167497
2.0285642821410708    0.9780791533170987
2.0325162581290646    0.9695831351471422
