omega:    Tc: 
5.0    0.9546493139054572
5.005002501250625    0.9494643502927598
5.01000500250125    0.9441729642183434
5.0150075037518755    0.9388119100262393
5.020010005002502    0.9334171378657958
5.025012506253127    0.9280235435610118
5.030015007503752    0.922664756752865
5.035017508754377    0.9173729666385049
5.040020010005002    0.9121787837396629
5.0450225112556275    0.9071111354162559
5.050025012506253    0.9021971922980315
5.055027513756879    0.8974623224280003
5.060030015007504    0.8929300696810516
5.065032516258129    0.8886221529212903
5.070035017508754    0.8845584823714824
5.0750375187593795    0.8807571897670974
5.080040020010005    0.8772346690352789
5.085042521260631    0.8740056244574447
5.090045022511256    0.8710831235267507
5.095047523761881    0.8684786519843222
5.100050025012506    0.8662021687999252
5.105052526263131    0.8642621591445985
5.110055027513757    0.8626656836786408
5.115057528764382    0.8614184227438149
5.120060030015008    0.8605247143013981
5.125062531265633    0.8599875846973067
5.130065032516258    0.8598087715622054
5.135067533766883    0.8599887383701832
5.140070035017509    0.8605266803866023
5.145072536268134    0.8614205219369744
5.150075037518759    0.8626669051275693
5.155077538769385    0.8642611703481815
5.16008004002001    0.8661973290912978
5.165082541270635    0.8684680298327454
5.1700850425212606    0.8710645179389009
5.175087543771886    0.8739765907964301
5.180090045022511    0.8771925496025084
5.185092546273137    0.8806991495058354
5.190095047523762    0.8844815500489931
5.195097548774387    0.8885232681266664
5.2001000500250125    0.8928061359353199
5.205102551275638    0.897310266640016
5.210105052526263    0.9020140307116579
5.215107553776888    0.9068940460801274
5.220110055027514    0.9119251853896687
5.225112556278139    0.917080603715128
5.2301150575287645    0.9223317900822083
5.23511755877939    0.9276486460124068
5.240120060030015    0.932999594065071
5.24512256128064    0.9383517189577574
5.250125062531266    0.9436709432991643
5.255127563781891    0.9489222392580821
5.2601300650325165    0.9540698766170143
5.265132566283142    0.9590777066291536
5.270135067533767    0.963909479931689
5.275137568784392    0.96852919549853
5.280140070035017    0.9729014762846436
5.285142571285643    0.976991965876995
5.290145072536268    0.9807677391878928
5.295147573786894    0.9841977190760147
5.300150075037519    0.9872530898316851
5.305152576288144    0.9899076977867936
5.310155077538769    0.9921384289683112
5.315157578789394    0.9939255537560034
5.32016008004002    0.9952530289592676
5.325162581290646    0.996108748600578
5.330165082541271    0.9964847359646944
5.335167583791896    0.9963772710972805
5.340170085042521    0.9957869498444462
5.345172586293146    0.99471867262585
5.3501750875437715    0.9931815633243559
5.3551775887943975    0.9911888208449742
5.360180090045023    0.9887575079358378
5.365182591295648    0.9859082836755179
5.370185092546273    0.9826650875313832
5.375187593796898    0.9790547840223393
5.380190095047523    0.9751067777406452
5.385192596298149    0.9708526087919094
5.390195097548775    0.9663255386152714
5.3951975987994    0.9615601356835877
5.400200100050025    0.9565918698107887
5.40520260130065    0.9514567227749116
5.410205102551275    0.9461908217728895
5.415207603801901    0.9408301009285953
5.420210105052527    0.935409994746784
5.425212606303152    0.9299651661029246
5.430215107553777    0.924529270132296
5.435217608804402    0.919134754269916
5.440220110055027    0.9138126937223281
5.4452226113056525    0.908592660838937
5.450225112556278    0.9035026261994688
5.455227613806904    0.8985688887423184
5.460230115057529    0.8938160319169912
5.465232616308154    0.8892669026374708
5.470235117558779    0.8849426097252789
5.4752376188094045    0.8808625385424864
5.48024012006003    0.8770443786067244
5.485242621310656    0.873504161134154
5.490245122561281    0.8702563036560131
5.495247623811906    0.8673136590845103
5.500250125062531    0.8646875668525429
5.5052526263131565    0.8623879040082654
5.510255127563782    0.8604231344026043
5.515257628814407    0.8588003543592607
5.520260130065033    0.8575253334588115
5.525262631315658    0.8566025492994069
5.530265132566283    0.8560352153151494
5.5352676338169085    0.8558253009405807
5.540270135067534    0.8559735436069176
5.545272636318159    0.8564794522453653
5.550275137568784    0.8573413021574998
5.55527763881941    0.858556121295905
5.560280140070035    0.860119668182842
5.56528264132066    0.8620264018842754
5.570285142571286    0.8642694446541355
5.575287643821911    0.8668405380717839
5.580290145072536    0.8697299937162766
5.585292646323161    0.8729266396556865
5.590295147573787    0.8764177642781097
5.595297648824412    0.8801890592521189
5.600300150075038    0.8842245636755375
5.605302651325663    0.8885066117474092
5.610305152576288    0.8930157865725469
5.615307653826913    0.8977308829715307
5.620310155077538    0.9026288824099469
5.625312656328164    0.9076849433647067
5.6303151575787895    0.9128724105960135
5.635317658829415    0.9181628468719127
5.64032016008004    0.923526090678254
5.645322661330665    0.9289303433191922
5.65032516258129    0.9343422885511474
5.655327663831916    0.9397272474779146
5.6603301650825415    0.9450493708506034
5.665332666333167    0.9502718701539895
5.670335167583792    0.9553572879182437
5.675337668834417    0.9602678065798859
5.680340170085042    0.9649655939473141
5.685342671335668    0.9694131819368955
5.6903451725862935    0.9735738737812942
5.695347673836919    0.9774121734317531
5.700350175087544    0.9808942294512282
5.705352676338169    0.9839882844050363
5.710355177588794    0.9866651196836902
5.715357678839419    0.9888984849209279
5.720360180090045    0.9906655007729046
5.725362681340671    0.9919470238616674
5.730365182591296    0.9927279631953534
5.735367683841921    0.9929975383709251
5.740370185092546    0.9927494713235503
5.745372686343171    0.9919821052599876
5.7503751875937965    0.9906984466214267
5.755377688844423    0.9889061283587359
5.760380190095048    0.9866172953465888
5.765382691345673    0.9838484152795474
5.770385192596298    0.9806200207515153
5.775387693846923    0.9769563902991102
5.7803901950975485    0.972885177888958
5.785392696348174    0.968437001575823
5.7903951975988    0.9636450028101677
5.795397698849425    0.9585443881222125
5.80040020010005    0.9531719646760944
5.805402701350675    0.9475656805225969
5.8104052026013004    0.9417641793518459
5.815407703851926    0.9358063782429855
5.820410205102551    0.9297310754170205
5.825412706353177    0.9235765934112924
5.830415207603802    0.917380461493905
5.835417708854427    0.9111791395956754
5.840420210105052    0.9050077846146523
5.845422711355678    0.8989000586872833
5.850425212606303    0.8928879779479166
5.855427713856928    0.8870017994290457
5.860430215107554    0.8812699430880166
5.865432716358179    0.8757189454746704
5.870435217608804    0.8703734412599184
5.87543771885943    0.8652561687083493
5.880440220110055    0.8603879951721184
5.885442721360681    0.8557879587853694
5.890445222611306    0.8514733227223156
5.895447723861931    0.8474596386264645
5.900450225112556    0.843760816101908
5.9054527263631815    0.8403891954640539
5.910455227613807    0.8373556212617431
5.915457728864432    0.834669514394674
5.920460230115058    0.8323389409510891
5.925462731365683    0.8303706761754862
5.930465232616308    0.8287702622407906
5.9354677338669335    0.827542058743135
5.940470235117559    0.8266892850598819
5.945472736368184    0.8262140539143333
5.950475237618809    0.8261173956760723
5.955477738869435    0.8263992730971745
5.96048024012006    0.8270585863451174
5.9654827413706855    0.8280931683471584
5.970485242621311    0.8294997706120989
5.975487743871936    0.8312740398479517
5.980490245122561    0.8334104858517599
5.985492746373186    0.8359024413143243
5.990495247623812    0.8387420143610209
5.995497748874437    0.8419200348425881
6.000500250125063    0.8454259955984172
6.005502751375688    0.8492479901400687
6.010505252626313    0.8533726484436783
6.015507753876938    0.8577850727945278
6.020510255127563    0.8624687758909929
6.025512756378189    0.8674056236825938
6.030515257628815    0.8725757856793612
6.03551775887944    0.8779576957163132
6.040520260130065    0.8835280263744778
6.04552276138069    0.8892616804324442
6.050525262631316    0.8951318028321555
6.0555277638819405    0.9011098166696689
6.0605302651325665    0.9071654866452761
6.065532766383192    0.9132670132067946
6.070535267633817    0.9193811602760714
6.075537768884442    0.9254734189447911
6.080540270135067    0.9315082088510871
6.085542771385693    0.9374491180977356
6.090545272636318    0.9432591815512109
6.095547773886944    0.9489011961834981
6.100550275137569    0.9543380708128766
6.105552776388194    0.9595332062067607
6.110555277638819    0.9644509000820146
6.115557778889444    0.9690567701412522
6.1205602801400705    0.973318186990679
6.125562781390695    0.9772047076750463
6.130565282641321    0.9806884997164746
6.135567783891946    0.9837447450287924
6.140570285142571    0.98635201295776
6.145572786393196    0.9884925920114771
6.1505752876438216    0.9901527706124365
6.155577788894448    0.9913230584135149
6.160580290145073    0.9919983413361856
6.165582791395698    0.9921779654441092
6.170585292646323    0.9918657469681509
6.175587793896948    0.9910699081407407
6.1805902951475735    0.9898029408581446
6.185592796398199    0.9880814024477997
6.190595297648825    0.9859256498597242
6.19559779889945    0.983359520328267
6.200600300150075    0.9804099678881497
6.2056028014007    0.9771066660274461
6.2106053026513255    0.9734815872021644
6.215607803901951    0.9695685699309653
6.220610305152576    0.9654028837698121
6.225612806403202    0.9610208016906403
6.230615307653827    0.9564591883263965
6.235617808904452    0.9517551112752015
6.2406203101550775    0.9469454812604641
6.245622811405703    0.9420667254983315
6.250625312656328    0.9371544971977952
6.255627813906953    0.932243422770789
6.260630315157579    0.9273668871037157
6.265632816408204    0.922556856170676
6.270635317658829    0.9178437353693336
6.275637818909455    0.9132562612418105
6.28064032016008    0.9088214237000618
6.285642821410706    0.9045644154997117
6.29064532266133    0.9005086054804284
6.295647823911956    0.8966755319967146
6.300650325162581    0.8930849129780081
6.305652826413207    0.8897546691613026
6.310655327663832    0.8867009572117093
6.315657828914457    0.8839382096684252
6.320660330165083    0.8814791789096003
6.325662831415707    0.8793349826053283
6.330665332666333    0.8775151484130412
6.3356678339169585    0.8760276559558606
6.340670335167584    0.87487897440565
6.345672836418209    0.8740740942654568
6.350675337668834    0.8736165522092141
6.35567783891946    0.8735084480894907
6.360680340170085    0.8737504534686451
6.3656828414207105    0.8743418112668954
6.370685342671336    0.8752803263562281
6.375687843921961    0.8765623471647248
6.380690345172586    0.8781827385963928
6.385692846423211    0.8801348468203718
6.390695347673837    0.8824104567440902
6.3956978489244625    0.8849997432606597
6.400700350175088    0.8878912176533392
6.405702851425713    0.8910716708501077
6.410705352676338    0.8945261155483296
6.415707853926963    0.8982377295699631
6.420710355177588    0.9021878031564174
6.425712856428214    0.9063556932603793
6.43071535767884    0.9107187882279082
6.435717858929465    0.9152524865727358
6.44072036018009    0.9199301938066338
6.445722861430715    0.9247233414826354
6.45072536268134    0.9296014327059408
6.4557278639319655    0.9345321183422248
6.460730365182592    0.9394813079756748
6.465732866433217    0.9444133193106681
6.470735367683842    0.9492910691456693
6.475737868934467    0.954076308255706
6.480740370185092    0.9587299014891753
6.485742871435718    0.9632121531165889
6.490745372686343    0.967483175978904
6.495747873936969    0.9715033013054382
6.500750375187594    0.9752335242590129
6.505752876438219    0.9786359783924523
6.510755377688844    0.9816744303570701
6.5157578789394694    0.9843147844961654
6.5207603801900955    0.9865255854997266
6.52576288144072    0.9882785062048354
6.530765382691346    0.9895488070064928
6.535767883941971    0.9903157532816942
6.540770385192596    0.9905629777836589
6.545772886443221    0.9902787761528035
6.550775387693847    0.9894563254928603
6.555777888944473    0.9880938183070966
6.560780390195097    0.9861945068694649
6.565782891445723    0.9837666561740979
6.570785392696348    0.9808234067931159
6.575787893946973    0.9773825520973781
6.580790395197599    0.9734662371811922
6.585792896448224    0.969100589323439
6.59079539769885    0.9643152917883622
6.595797898949475    0.9591431141343427
6.6008004002001    0.953619412918481
6.605802901450725    0.9477816167641531
6.6108054027013505    0.941668709243849
6.615807903951976    0.9353207220015316
6.620810405202601    0.9287782491005725
6.625812906453227    0.9220819918533066
6.630815407703852    0.9152723414864847
6.635817908954477    0.9083890050374579
6.6408204102051025    0.9014706779601209
6.645822911455728    0.8945547651304175
6.650825412706353    0.8876771503399619
6.655827913956978    0.8808720129959835
6.660830415207604    0.8741716896257083
6.665832916458229    0.8676065769193013
6.6708354177088545    0.8612050724277014
6.67583791895948    0.8549935486383351
6.680840420210105    0.8489963559587193
6.68584292146073    0.8432358501106125
6.690845422711355    0.837732439546453
6.695847923961981    0.8325046487125862
6.700850425212606    0.8275691932705567
6.705852926463232    0.822941063724144
6.710855427713857    0.8186336142631399
6.715857928964482    0.8146586540062614
6.720860430215108    0.8110265381928781
6.725862931465732    0.807746257224262
6.730865432716358    0.8048255217830422
6.735867933966984    0.8022708425602711
6.740870435217609    0.8000876033900827
6.745872936468234    0.7982801268326298
6.750875437718859    0.7968517314564861
6.755877938969485    0.795804780256227
6.7608804402201095    0.7951407197994261
6.7658829414707355    0.7948601098359397
6.770885442721361    0.7949626432226852
6.775887943971986    0.7954471561243155
6.780890445222611    0.7963116285471972
6.785892946473236    0.7975531753559377
6.790895447723862    0.7991680280107103
6.7958979489744875    0.8011515073553683
6.800900450225113    0.8034979878822619
6.805902951475738    0.806200854005203
6.810905452726363    0.8092524489882532
6.815907953976988    0.8126440173095036
6.820910455227613    0.8163656413866338
6.8259129564782395    0.8204061737576295
6.830915457728865    0.8247531659964229
6.83591795897949    0.8293927958499889
6.840920460230115    0.8343097943099025
6.84592296148074    0.8394873745759659
6.850925462731365    0.8449071651287312
6.855927963981991    0.8505491493965089
6.860930465232617    0.8563916147734267
6.865932966483242    0.8624111140083872
6.870935467733867    0.8685824422275155
6.875937968984492    0.8748786330591992
6.880940470235117    0.8812709774822154
6.8859429714857425    0.8877290690911919
6.890945472736368    0.8942208794457784
6.895947973986994    0.9007128670132303
6.900950475237619    0.9071701229021434
6.905952976488244    0.9135565560918804
6.910955477738869    0.9198351201659636
6.9159579789894945    0.9259680826431592
6.920960480240121    0.9319173368618627
6.925962981490745    0.9376447550198064
6.930965482741371    0.9431125794269615
6.935967983991996    0.9482838473382428
6.940970485242621    0.9531228429592216
6.9459729864932465    0.9575955684452966
6.950975487743872    0.9616702240453219
6.955977988994498    0.965317686086018
6.960980490245122    0.9685119703720921
6.965982991495748    0.9712306678998124
6.970985492746373    0.973455339644474
6.975987993996998    0.975171857652614
6.980990495247624    0.9763706807782014
6.985992996498249    0.9770470551347303
6.990995497748875    0.9772011316307117
6.995997998999499    0.97683799570717
7.001000500250125    0.9759676074562769
7.00600300150075    0.9746046534957452
7.011005502751376    0.9727683151168192
7.016008004002001    0.970481960129658
7.021010505252626    0.9677727683338079
7.026013006503252    0.9646713025096245
7.031015507753876    0.9612110381703101
7.036018009004502    0.9574278659909644
7.0410205102551275    0.953359580848637
7.046023011505753    0.949045370815204
7.051025512756379    0.9445253183307663
7.056028014007003    0.939839924259315
7.061030515257629    0.9350296637156147
7.066033016508253    0.9301345805798537
7.0710355177588795    0.9251939256027438
7.076038019009505    0.9202458410529291
7.08104052026013    0.9153270930545006
7.086043021510756    0.9104728511662424
7.09104552276138    0.905716513405158
7.096048024012006    0.9010895738328472
7.1010505252626315    0.8966215290048307
7.106053026513257    0.8923398190161713
7.111055527763882    0.8882697985383486
7.116058029014507    0.8844347331009202
7.121060530265133    0.8808558158950235
7.126063031515757    0.8775522005288952
7.131065532766383    0.8745410454174144
7.136068034017009    0.871837565807888
7.141070535267634    0.8694550898089901
7.146073036518259    0.8674051151773965
7.151075537768884    0.8656973640118831
7.15607803901951    0.8643398328953955
7.1610805402701345    0.863338836404349
7.166083041520761    0.8626990422670783
7.171085542771386    0.8624234967986582
7.176088044022011    0.8625136395689292
7.181090545272636    0.8629693065775828
7.186093046523261    0.8637887215199269
7.191095547773887    0.8649684750352225
7.196098049024512    0.8665034921432317
7.201100550275138    0.8683869884007505
7.206103051525763    0.8706104156551737
7.211105552776388    0.8731633986429231
7.216108054027013    0.8760336640814999
7.2211105552776385    0.8792069643383658
7.2261130565282645    0.8826669982283859
7.231115557778889    0.8863953319914144
7.236118059029515    0.890371324026316
7.24112056028014    0.89457205749508
7.246123061530765    0.8989722854438654
7.25112556278139    0.9035443935920214
7.256128064032016    0.9082583863849969
7.261130565282642    0.9130819022541784
7.266133066533266    0.9179802642317157
7.271135567783892    0.9229165720816346
7.276138069034517    0.9278518418772198
7.281140570285142    0.9327451984268202
7.2861430715357685    0.9375541250784014
7.291145572786393    0.942234774180684
7.296148074037019    0.9467423398259889
7.301150575287643    0.9510314924502821
7.306153076538269    0.9550568724541535
7.311155577788894    0.958773637302808
7.3161580790395195    0.9621380536714597
7.321160580290146    0.96510812326894
7.32616308154077    0.9676442281735634
7.331165582791396    0.9697097790518704
7.336168084042021    0.9712718477090871
7.341170585292646    0.9723017642398386
7.3461730865432715    0.9727756587729994
7.351175587793897    0.9726749285527907
7.356178089044523    0.971986612912592
7.361180590295147    0.9707036615436999
7.366183091545773    0.9688250852127241
7.371185592796398    0.9663559825383965
7.3761880940470235    0.9633074413279468
7.381190595297649    0.9596963179856877
7.386193096548274    0.9555449033152574
7.3911955977989    0.9508804873349753
7.396198099049524    0.9457348392511086
7.40120060030015    0.9401436212947898
7.406203101550775    0.934145756617671
7.411205602801401    0.927782771837683
7.416208104052026    0.9210981341974955
7.421210605302651    0.9141366017714047
7.426213106553277    0.9069436029232816
7.431215607803901    0.8995646584848219
7.436218109054527    0.8920448571122738
7.441220610305153    0.884428391195261
7.446223111555778    0.8767581577156918
7.451225612806403    0.869075425726758
7.456228114057028    0.8614195697440358
7.461230615307654    0.8538278663767815
7.4662331165582785    0.8463353499945196
7.4712356178089045    0.8389747221203021
7.47623811905953    0.8317763085330812
7.481240620310155    0.8247680577028861
7.486243121560781    0.8179755741142196
7.491245622811405    0.8114221801999142
7.496248124062031    0.8051290009491688
7.501250625312656    0.7991150657158622
