omega:    Tc: 
0.1    0.8109727804970477
0.10395197598799401    0.8121476083826554
0.107903951975988    0.8145377194440453
0.111855927963982    0.8181258117630559
0.11580790395197599    0.8228850921597433
0.11975987993996999    0.8287783737375127
0.12371185592796399    0.8357569175639423
0.12766383191595798    0.8437590684006668
0.131615807903952    0.852708754993649
0.135567783891946    0.8625139503084642
0.13951975987993998    0.8730652156638583
0.143471735867934    0.8842344833359
0.14742371185592798    0.8958742618708035
0.15137568784392197    0.9078174724924055
0.15532766383191599    0.919878137515499
0.15927963981990997    0.9318531353327241
0.16323161580790396    0.9435252038734246
0.16718359179589798    0.9546673093061471
0.17113556778389194    0.9650483964211867
0.17508754377188596    0.9744404044514274
0.17903951975987994    0.9826262773540744
0.18299149574787393    0.9894085390386262
0.18694347173586795    0.994617866443527
0.19089544772386194    0.998121004118696
0.19484742371185593    0.9998273471872143
0.19879939969984994    0.9996935895043021
0.20275137568784393    0.9977259896012525
0.20670335167583792    0.9939800305233396
0.21065532766383194    0.9885575082265624
0.21460730365182593    0.9816013361929106
0.21855927963981991    0.9732885620376293
0.22251125562781393    0.9638222258308476
0.22646323161580792    0.9534227361316328
0.2304152076038019    0.9423194018625607
0.23436718359179592    0.9307426536403418
0.2383191595797899    0.9189173426329746
0.2422711355677839    0.9070573455815021
0.24622311155577792    0.8953615545586004
0.25017508754377193    0.8840112054806
0.2541270635317659    0.8731684085112549
0.25807903951975986    0.8629756874571326
0.2620310155077539    0.8535563101992159
0.2659829914957479    0.8450151914908408
0.2699349674837419    0.8374401655805751
0.2738869434717359    0.8309034521083558
0.2778389194597299    0.8254631688815107
0.28179089544772384    0.8211647753437639
0.28574287143571786    0.8180423582027911
0.2896948474237119    0.8161196944619499
0.2936468234117059    0.815411046673365
0.2975987993996999    0.8159216609508402
0.30155077538769387    0.8176479509616497
0.30550275137568783    0.8205773618385045
0.30945472736368185    0.8246879179402176
0.31340670335167586    0.8299474689154345
0.3173586793396699    0.8363126608300736
0.3213106553276639    0.8437276743275247
0.32526263131565786    0.8521227907798896
0.3292146073036518    0.8614128706215886
0.33316658329164583    0.8714958553474248
0.33711855927963985    0.8822514348839521
0.34107053526763387    0.8935400528396119
0.34502251125562783    0.905202449635301
0.34897448724362184    0.9170599622371478
0.3529264632316158    0.9289158022843204
0.3568784392196098    0.9405575142371995
0.36083041520760384    0.9517607647338608
0.36478239119559785    0.9622945290308962
0.36873436718359187    0.9719276202844045
0.3726863431715858    0.9804363593568719
0.3766383191595798    0.9876130217081476
0.3805902951475738    0.993274546187985
0.3845422711355678    0.9972708753649707
0.38849424712356184    0.9994922451388183
0.39244622311155586    0.9998747724971669
0.39639819909954976    0.9984038108160749
0.4003501750875438    0.9951147414410451
0.4043021510755378    0.9900911211999732
0.4082541270635318    0.9834603692736722
0.41220610305152583    0.9753874118186424
0.41615807903951973    0.9660668737457528
0.42011005502751375    0.9557144929345244
0.42406203101550777    0.9445584290855878
0.4280140070035018    0.9328310596081982
0.4319659829914958    0.9207617216988087
0.4359179589794898    0.9085707008027077
0.4398699349674837    0.8964646068673636
0.44382191095547774    0.8846331409610291
0.44777388694347176    0.8732471476891799
0.45172586293146577    0.8624577773987615
0.4556778389194598    0.8523965443674745
0.4596298149074538    0.8431760571889444
0.4635817908954477    0.8348912078973323
0.4675337668834417    0.8276206295534484
0.47148574287143574    0.8214282616196733
0.47543771885942976    0.816364893597642
0.4793896948474238    0.8124695868063605
0.4833416708354178    0.8097708999745088
0.4872936468234117    0.8082878657708351
0.4912456228114057    0.808030682580949
0.49519759879939973    0.809001099386135
0.49914957478739375    0.8111924824779709
0.5031015507753878    0.814589562110091
0.5070535267633818    0.8191678662924915
0.5110055027513757    0.8248928590357378
0.5149574787393697    0.8317188126586447
0.5189094547273637    0.8395874593470147
0.5228614307153577    0.8484264867859799
0.5268134067033517    0.8581479667245823
0.5307653826913458    0.8686468334090107
0.5347173586793397    0.8797995595845943
0.5386693346673337    0.8914632085551434
0.5426213106553277    0.9034750673912298
0.5465732866433217    0.9156530829816543
0.5505252626313157    0.9277973220910755
0.5544772386193096    0.9396926512623807
0.5584292146073037    0.9511127755031452
0.5623811905952977    0.9618256822965714
0.5663331665832917    0.9716004107938243
0.5702851425712857    0.9802149134603195
0.5742371185592797    0.9874646154918718
0.5781890945472736    0.9931711297507857
0.5821410705352676    0.9971904794692458
0.5860930465232617    0.999420143537616
0.5900450225112557    0.9998042874674047
0.5939969984992497    0.998336680384917
0.5979489744872437    0.9950610105828497
0.6019009504752376    0.9900685691555593
0.6058529264632316    0.9834935329542296
0.6098049024512256    0.9755063033478342
0.6137568784392197    0.9663055131346103
0.6177088544272136    0.9561093825211684
0.6216608304152076    0.945147085942144
0.6256128064032016    0.9336506995034565
0.6295647823911956    0.9218481586813745
0.6335167583791896    0.909957495376085
0.6374687343671837    0.8981824674394312
0.6414207103551776    0.8867095606150361
0.6453726863431716    0.8757062425856419
0.6493246623311656    0.8653202841797503
0.6532766383191596    0.8556799307946281
0.6572286143071536    0.846894701453664
0.6611805902951476    0.8390566060705604
0.6651325662831415    0.8322415961438654
0.6690845422711356    0.8265110941393539
0.6730365182591296    0.821913477689923
0.6769884942471236    0.8184854234848864
0.6809404702351176    0.8162530407295435
0.6848924462231116    0.815232744794596
0.6888444222111055    0.8154318383692666
0.6927963981990996    0.8168487808138458
0.6967483741870936    0.8194731375161848
0.7007003501750876    0.823285211098423
0.7046523261630816    0.8282553665670161
0.7086043021510756    0.8343430742071944
0.7125562781390695    0.8414957083499209
0.7165082541270635    0.8496471580302039
0.7204602301150576    0.8587163275872876
0.7244122061030516    0.8686056314205737
0.7283641820910456    0.8791996165435989
0.7323161580790395    0.8903638772436342
0.7362681340670335    0.901944454590385
0.7402201100550275    0.9137679346922909
0.7441720860430215    0.9256424669558336
0.7481240620310156    0.9373599097285575
0.7520760380190096    0.9486992683663388
0.7560280140070035    0.9594315146417898
0.7599799899949975    0.9693257652637164
0.7639319659829915    0.9781566561289041
0.7678839419709855    0.9857125905701762
0.7718359179589795    0.9918043848650173
0.7757878939469736    0.9962737087626431
0.7797398699349675    0.9990006498934371
0.7836918459229615    0.9999097404446928
0.7876438219109555    0.9989738824535848
0.7915957978989495    0.9962157882434793
0.7955477738869435    0.9917067917290241
0.7994997498749375    0.985563148365371
0.8034517258629315    0.9779401850494951
0.8074037018509255    0.9690248491209282
0.8113556778389195    0.9590273128763946
0.8153076538269135    0.9481723085810505
0.8192596298149075    0.9366908072784627
0.8232116058029015    0.9248125336343012
0.8271635817908954    0.9127596555156454
0.8311155577788895    0.9007418275658345
0.8350675337668835    0.8889526240432242
0.8390195097548775    0.8775672813379043
0.8429714857428715    0.8667415906674754
0.8469234617308655    0.8566117357950986
0.8508754377188594    0.8472948541901373
0.8548274137068534    0.8388901057074397
0.8587793896948475    0.831480053086406
0.8627313656828415    0.8251321866873167
0.8666833416708355    0.8199004566493022
0.8706353176588294    0.8158267054253767
0.8745872936468234    0.8129419202449264
0.8785392696348174    0.8112672474881955
0.8824912456228114    0.8108147291356689
0.8864432216108055    0.81158773589324
0.8903951975987995    0.8135810831953014
0.8943471735867934    0.816780826181204
0.8982991495747874    0.8211637391673927
0.9022511255627814    0.8266964953705797
0.9062031015507754    0.8333345749069812
0.9101550775387695    0.8410209444993928
0.9141070535267635    0.8496845717140162
0.9180590295147574    0.8592388603346514
0.9220110055027514    0.8695801214003231
0.9259629814907454    0.8805862252484484
0.9299149574787394    0.8921156110983499
0.9338669334667334    0.9040068582129749
0.9378189094547275    0.916079040793069
0.9417708854427214    0.928133090402758
0.9457228614307154    0.9399543671633865
0.9496748374187094    0.9513165871494834
0.9536268134067034    0.9619871639921376
0.9575787893946974    0.9717338982079078
0.9615307653826914    0.9803327958631747
0.9654827413706853    0.9875766347113164
0.9694347173586794    0.9932837442941727
0.9733866933466734    0.9973063545007359
0.9773386693346674    0.9995378215277191
0.9812906453226614    0.9999180800974362
0.9852426213106554    0.9984368011472105
0.9891945972986493    0.9951339424983783
0.9931465732866434    0.9900976371546926
0.9970985492746374    0.9834596298352414
1.0010505252626314    0.9753887050637369
1.0050025012506254    0.9660827150968683
1.0089544772386194    0.9557598934463627
1.0129064532266134    0.9446501277109749
1.0168584292146075    0.9329867777724277
1.0208104052026015    0.9209994865646269
1.0247623811905955    0.9089082687792907
1.0287143571785895    0.8969190037680188
1.0326663331665833    0.8852203217173253
1.0366183091545773    0.873981767878174
1.0405702851425713    0.8633530614781868
1.0445222611305653    0.8534642312972257
1.0484742371185594    0.8444264025306092
1.0524262131065534    0.8363330218466598
1.0563781890945474    0.8292613319868274
1.0603301650825414    0.8232739375326784
1.0642821410705354    0.8184203348316186
1.0682341170585294    0.8147383084004397
1.0721860930465235    0.8122551216868414
1.0761380690345175    0.8109884512410007
1.0800900450225113    0.8109470303019158
1.0840420210105053    0.8121309812325981
1.0879939969984993    0.8145318271617317
1.0919459729864933    0.818132182801121
1.0958979489744873    0.8229051339781306
1.0998499249624814    0.8288133262204956
1.1038019009504754    0.8358077959517838
1.1077538769384694    0.84382659452013
1.1117058529264634    0.8527932760966608
1.1156578289144574    0.862615345634006
1.1196098049024514    0.8731827919850381
1.1235617808904454    0.8843668622819769
1.1275137568784395    0.8960192637204375
1.1314657328664335    0.9079720033481256
1.1354177088544273    0.9200380891209303
1.1393696848424213    0.9320133089941649
1.1433216608304153    0.9436792715822735
1.1472736368184093    0.9548078257178774
1.1512256128064033    0.9651668742948121
1.1551775887943974    0.9745274630497547
1.1591295647823914    0.9826718679573541
1.1630815407703854    0.989402244343125
1.1670335167583794    0.9945492619148726
1.1709854927463734    0.997980060548384
1.1749374687343674    0.9996048462816813
1.1788894447223615    0.999381519850776
1.1828414207103553    0.9973178899565327
1.1867933966983493    0.9934712514902355
1.1907453726863433    0.9879453715444848
1.1946973486743373    0.9808851817647914
1.1986493246623313    0.9724696846041934
1.2026013006503253    0.9629037139596957
1.2065532766383193    0.9524092343454489
1.2105052526263134    0.9412168213845082
1.2144572286143074    0.9295578582407478
1.2184092046023014    0.9176578339281181
1.2223611805902954    0.9057309677859007
1.2263131565782894    0.8939762331898113
1.2302651325662832    0.882574728830555
1.2342171085542772    0.8716882555629776
1.2381690845422713    0.8614589017814906
1.2421210605302653    0.8520094163851848
1.2460730365182593    0.8434441488097449
1.2500250125062533    0.8358503526960552
1.2539769884942473    0.8292996764954215
1.2579289644822413    0.8238496949789734
1.2618809404702354    0.819545366128965
1.2658329164582294    0.8164203256813058
1.2697848924462234    0.8144979553878816
1.2737368684342172    0.8137921805784698
1.2776888444222112    0.8143079682160581
1.2816408204102052    0.816041509190834
1.2855927963981992    0.8189800791855018
1.2895447723861932    0.8231015823032177
1.2934967483741873    0.8283737920594207
1.2974487243621813    0.8347533165474491
1.3014007003501753    0.8421843297210321
1.3053526763381693    0.8505971296786363
1.3093046523261633    0.8599066080550064
1.3132566283141573    0.8700107419470658
1.3172086043021514    0.8807892501127206
1.3211605802901452    0.8921025861258913
1.3251125562781392    0.9037914688844233
1.3290645322661332    0.9156771698696706
1.3330165082541272    0.9275627799548116
1.3369684842421212    0.939235658720226
1.3409204602301152    0.9504712190571761
1.3448724362181093    0.9610381146255442
1.3488244122061033    0.9707047774381886
1.3527763881940973    0.9792471042420977
1.3567283641820913    0.9864569283131731
1.3606803401700853    0.9921507602816568
1.3646323161580791    0.9961781650098454
1.3685842921460731    0.9984290883783361
1.3725362681340672    0.9988394781490314
1.3764882441220612    0.9973946635794946
1.3804402201100552    0.9941301586808795
1.3843921960980492    0.9891298066295564
1.3883441720860432    0.9825214488213262
1.3922961480740372    0.9744705392569333
1.3962481240620312    0.9651722977242615
1.4002001000500253    0.9548430820660748
1.4041520760380193    0.9437116567423383
1.4081040520260133    0.9320109542479675
1.412056028014007    0.9199707913116796
1.416008004002001    0.9078118412497453
1.4199599799899951    0.895741003608198
1.4239119559779891    0.8839481722859308
1.4278639319659832    0.8726042955279335
1.4318159079539772    0.8618605494987785
1.4357678839419712    0.8518484094526328
1.4397198599299652    0.8426803928438941
1.4436718359179592    0.8344512594689273
1.4476238119059532    0.8272394773298815
1.4515757878939473    0.8211087928873168
1.4555277638819413    0.8161097758055126
1.459479739869935    0.8122812379028952
1.463431715857929    0.8096514519468989
1.467383691845923    0.8082391174598318
1.4713356678339171    0.8080540379358069
1.4752876438219111    0.8090974874644977
1.4792396198099051    0.8113622557110615
1.4831915957978992    0.8148323696995192
1.4871435717858932    0.8194825001634911
1.4910955477738872    0.8252770706509238
1.4950475237618812    0.8321691003264147
1.4989994997498752    0.8400988275827465
1.502951475737869    0.848992181942599
1.506903451725863    0.8587591966125041
1.510855427713857    0.8692924830146165
1.514807403701851    0.8804659201884375
1.518759379689845    0.8921337432736363
1.522711355677839    0.904130241891683
1.5266633316658331    0.9162702950185048
1.5306153076538271    0.9283509664419212
1.5345672836418212    0.9401543562359029
1.5385192596298152    0.9514518420355319
1.5424712356178092    0.9620097456115234
1.5464232116058032    0.9715963272269288
1.550375187593797    0.9799898520210919
1.554327163581791    0.9869873071736279
1.558279139569785    0.9924132010752129
1.562231115557779    0.996127774889378
1.566183091545773    0.998033928913366
1.570135067533767    0.9980822276586648
1.574087043521761    0.996273499694073
1.5780390195097551    0.9926587740250623
1.5819909954977491    0.9873365611427443
1.5859429714857431    0.9804477516943376
1.5898949474737372    0.9721686272383298
1.5938469234617312    0.962702623842981
1.597798899449725    0.9522715447466515
1.601750875437719    0.9411068853114497
1.605702851425713    0.9294418295125655
1.609654827413707    0.91750432864081
1.613606803401701    0.9055115082006008
1.617558779389695    0.8936654927892436
1.621510755377689    0.8821506083305048
1.625462731365683    0.8711318253248246
1.629414707353677    0.8607542472763251
1.6333666833416711    0.8511434213223696
1.6373186593296651    0.8424062464838924
1.641270635317659    0.8346322710777432
1.645222611305653    0.8278951973909662
1.649174587293647    0.8222544427442733
1.653126563281641    0.8177566372344943
1.657078539269635    0.8144369669938221
1.661030515257629    0.8123202963254847
1.664982491245623    0.8114220221844033
1.668934467233617    0.8117486305009318
1.672886443221611    0.8132979365986732
1.676838419209605    0.8160590025160694
1.680790395197599    0.8200117336368755
1.6847423711855931    0.8251261669536472
1.688694347173587    0.831361474799935
1.692646323161581    0.8386647221616819
1.696598299149575    0.8469694336798365
1.700550275137569    0.8561940487827023
1.704502251125563    0.8662403700507566
1.708454227113557    0.8769921400655426
1.712406203101551    0.8883139135915048
1.716358179089545    0.900050421472063
1.720310155077539    0.9120266449281491
1.724262131065533    0.9240488273208172
1.728214107053527    0.9359066371648705
1.732166083041521    0.9473766536640049
1.7361180590295149    0.9582272685784383
1.740070035017509    0.9682249842836926
1.744022011005503    0.9771419423615844
1.747973986993497    0.9847643530489203
1.751925962981491    0.9909013346692204
1.755877938969485    0.9953935411302294
1.759829914957479    0.9981208832734503
1.763781890945473    0.9990086594698051
1.767733866933467    0.9980315131733482
1.771685842921461    0.9952148237266563
1.775637818909455    0.9906333870511836
1.7795897948974488    0.9844075165876077
1.7835417708854429    0.9766969481267486
1.7874937468734369    0.9676931257687862
1.791445722861431    0.9576105542657884
1.795397698849425    0.946677917549429
1.799349674837419    0.9351295940838419
1.803301650825413    0.9231980695723121
1.807253626813407    0.9111075853066715
1.811205602801401    0.8990691940747351
1.815157578789395    0.8872772471387714
1.819109554777389    0.8759072191228396
1.823061530765383    0.8651146980741651
1.8270135067533768    0.8550353241275339
1.8309654827413708    0.8457854463667085
1.8349174587293648    0.837463275887876
1.8388694347173589    0.8301503357999942
1.8428214107053529    0.8239130390383026
1.846773386693347    0.8188042571027772
1.850725362681341    0.8148647735469534
1.854677338669335    0.8121245431441211
1.858629314657329    0.8106037002771036
1.862581290645323    0.8103132782556062
1.866533266633317    0.8112556155810973
1.870485242621311    0.8134244366459291
1.8744372186093048    0.8168046041733188
1.8783891945972988    0.8213715501808558
1.8823411705852928    0.8270904027059893
1.8862931465732868    0.8339148382398587
1.8902451225612809    0.8417857059056479
1.8941970985492749    0.8506294897455902
1.8981490745372689    0.8603567004372917
1.902101050525263    0.8708603170106344
1.906053026513257    0.8820144313044651
1.910005002501251    0.8936732802333397
1.913956978489245    0.9056708790267968
1.9179089544772387    0.9178214863276788
1.9218609304652328    0.929921131822411
1.9258129064532268    0.9417504107419932
1.9297648824412208    0.953078689819217
1.9337168584292148    0.9636697718345113
1.9376688344172088    0.9732889319567235
1.9416208104052028    0.9817110776518914
1.9455727863931969    0.9887296127928364
1.9495247623811909    0.9941654314098367
1.953476738369185    0.9978753571325099
1.957428714357179    0.9997593086927481
1.961380690345173    0.9997655284434158
1.9653326663331667    0.9978933623993693
1.9692846423211607    0.9941933104873358
1.9732366183091548    0.9887643409328106
1.9771885942971488    0.9817487390792086
1.9811405702851428    0.9733249941988293
1.9850925462731368    0.9636993836730612
1.9890445222611308    0.95309697494899
1.9929964982491248    0.9417527337017122
1.9969484742371189    0.9299033195998403
2.000900450225113    0.9177799967095288
2.0048524262131067    0.905602913922986
2.0088044022011005    0.8935768479347177
2.0127563781890947    0.88188836550057
2.0167083541770885    0.8707042623910375
2.0206603301650827    0.8601710751070978
2.0246123061530765    0.8504154339253162
2.0285642821410708    0.8415450248973968
2.0325162581290646    0.8336499458041062
