omega:    Tc: 
0.1    0.8246442890249646
0.10395197598799401    0.8206625073341387
0.107903951975988    0.8174239708145967
0.111855927963982    0.8149444599286169
0.11580790395197599    0.8132356630075419
0.11975987993996999    0.8123054364325271
0.12371185592796399    0.8121579864059689
0.12766383191595798    0.8127939686249677
0.131615807903952    0.8142105039478833
0.135567783891946    0.8164011097626471
0.13951975987993998    0.8193555483576873
0.143471735867934    0.8230595953009308
0.14742371185592798    0.8274947327831349
0.15137568784392197    0.8326377752025936
0.15532766383191599    0.8384604370655477
0.15927963981990997    0.8449288566288895
0.16323161580790396    0.8520030926560502
0.16718359179589798    0.8596366161713515
0.17113556778389194    0.8677758240815732
0.17508754377188596    0.8763596067834394
0.17903951975987994    0.8853190070679572
0.18299149574787393    0.8945770123043242
0.18694347173586795    0.9040485254333863
0.19089544772386194    0.9136405619911581
0.19484742371185593    0.923252719396717
0.19879939969984994    0.9327779602421307
0.20275137568784393    0.9421037425743278
0.20670335167583792    0.9511135166561151
0.21065532766383194    0.9596885893276669
0.21460730365182593    0.9677103343093306
0.21855927963981991    0.9750627007167976
0.22251125562781393    0.9816349445508157
0.22646323161580792    0.9873244814812226
0.2304152076038019    0.992039736824808
0.23436718359179592    0.9957028532767679
0.2383191595797899    0.998252111408062
0.2422711355677839    0.9996439240653081
0.24622311155577792    0.9998542842289885
0.25017508754377193    0.9988795757064097
0.2541270635317659    0.9967366948293168
0.25807903951975986    0.9934624753879593
0.2620310155077539    0.9891124538848645
0.2659829914957479    0.9837590532384316
0.2699349674837419    0.9774892962781652
0.2738869434717359    0.9704021828512285
0.2778389194597299    0.9626058746817008
0.28179089544772384    0.9542148304185667
0.28574287143571786    0.945347021068864
0.2896948474237119    0.9361213357169728
0.2936468234117059    0.9266552620677679
0.2975987993996999    0.9170628989490779
0.30155077538769387    0.9074533311496464
0.30550275137568783    0.8979293729360891
0.30945472736368185    0.888586666655351
0.31340670335167586    0.8795131076568115
0.3173586793396699    0.8707885564270794
0.3213106553276639    0.8624847929368272
0.32526263131565786    0.8546656660793168
0.3292146073036518    0.8473873919224195
0.33316658329164583    0.8406989574683873
0.33711855927963985    0.8346425909525483
0.34107053526763387    0.8292542647641019
0.34502251125562783    0.8245642023288321
0.34897448724362184    0.8205973653844745
0.3529264632316158    0.8173739027623343
0.3568784392196098    0.8149095459295133
0.36083041520760384    0.8132159400975218
0.36478239119559785    0.8123009026830628
0.36873436718359187    0.8121686033809429
0.3726863431715858    0.8128196621746481
0.3766383191595798    0.8142511633856697
0.3805902951475738    0.8164565854787569
0.3845422711355678    0.8194256479335662
0.38849424712356184    0.8231440782012993
0.39244622311155586    0.8275933037212284
0.39639819909954976    0.832750076300375
0.4003501750875438    0.8385860389658477
0.4043021510755378    0.8450672487618662
0.4082541270635318    0.8521536729184648
0.41220610305152583    0.8597986803437105
0.41615807903951973    0.86794855538377
0.42011005502751375    0.8765420660514703
0.42406203101550777    0.885510124117989
0.4280140070035018    0.8947755791297565
0.4319659829914958    0.9042531919470937
0.4359179589794898    0.913849835068784
0.4398699349674837    0.9234649659862723
0.44382191095547774    0.9329914152678616
0.44777388694347176    0.9423165222679635
0.45172586293146577    0.9513236377866388
0.4556778389194598    0.9598939945677026
0.4596298149074538    0.9679089236734831
0.4635817908954477    0.9752523686454528
0.4675337668834417    0.9818136218112081
0.47148574287143574    0.9874901806453285
0.47543771885942976    0.9921905996973968
0.4793896948474238    0.9958371983282535
0.4833416708354178    0.9983684790568965
0.4872936468234117    0.9997411175884152
0.4912456228114057    0.9999314041794632
0.49519759879939973    0.9989360459909553
0.49914957478739375    0.9967722790299105
0.5031015507753878    0.9934772824687872
0.5070535267633818    0.989106933056757
0.5110055027513757    0.9837339783984246
0.5149574787393697    0.9774457410399372
0.5189094547273637    0.9703414876779817
0.5228614307153577    0.9625296079860048
0.5268134067033517    0.954124745681812
0.5307653826913458    0.9452450120543812
0.5347173586793397    0.9360093917218721
0.5386693346673337    0.9265354249091725
0.5426213106553277    0.9169372230483472
0.5465732866433217    0.9073238477036973
0.5505252626313157    0.8977980587844758
0.5544772386193096    0.8884554180956805
0.5584292146073037    0.879383719150681
0.5623811905952977    0.8706627038866823
0.5663331665832917    0.8623640210930532
0.5702851425712857    0.8545513793037111
0.5742371185592797    0.8472808478013096
0.5781890945472736    0.8406012623989614
0.5821410705352676    0.8345546970377377
0.5860930465232617    0.8291769673164011
0.5900450225112557    0.8244981373443911
0.5939969984992497    0.8205430064115176
0.5979489744872437    0.8173315566575761
0.6019009504752376    0.8148793470704561
0.6058529264632316    0.8131978426964883
0.6098049024512256    0.8122946709319454
0.6137568784392197    0.8121737992462255
0.6177088544272136    0.8128356307644193
0.6216608304152076    0.8142770159286175
0.6256128064032016    0.8164911800951271
0.6295647823911956    0.8194675685452044
0.6335167583791896    0.8231916121272698
0.6374687343671837    0.8276444187412345
0.6414207103551776    0.8328023982415678
0.6453726863431716    0.8386368311779703
0.6493246623311656    0.8451133951835554
0.6532766383191596    0.8521916667898473
0.6572286143071536    0.8598246209639365
0.6611805902951476    0.8679581556131035
0.6651325662831415    0.8765306734708422
0.6690845422711356    0.885472758828178
0.6730365182591296    0.8947069910325036
0.6769884942471236    0.9041479399329277
0.6809404702351176    0.9137023897773449
0.6848924462231116    0.923269836657888
0.6888444222111055    0.9327432996553864
0.6927963981990996    0.9420104766591288
0.6967483741870936    0.9509552619960606
0.7007003501750876    0.9594596244626002
0.7046523261630816    0.9674058216369863
0.7086043021510756    0.9746789006482602
0.7125562781390695    0.9811694087700276
0.7165082541270635    0.9867762117799226
0.7204602301150576    0.9914092968573773
0.7244122061030516    0.9949924228043174
0.7283641820910456    0.9974654760961983
0.7323161580790395    0.9987863983857583
0.7362681340670335    0.998932570035503
0.7402201100550275    0.9979015640375559
0.7441720860430215    0.9957112228364209
0.7481240620310156    0.9923990534720096
0.7520760380190096    0.9880209797937259
0.7560280140070035    0.9826495298905757
0.7599799899949975    0.9763715685430139
0.7639319659829915    0.969285705734525
0.7678839419709855    0.9614995217780609
0.7718359179589795    0.9531267475937688
0.7757878939469736    0.9442845265808701
0.7797398699349675    0.935090864740896
0.7836918459229615    0.9256623510895565
0.7876438219109555    0.9161122038322058
0.7915957978989495    0.9065486718366614
0.7955477738869435    0.897073797612638
0.7994997498749375    0.8877825286190338
0.8034517258629315    0.8787621489202317
0.8074037018509255    0.8700919930780935
0.8113556778389195    0.8618433983394185
0.8153076538269135    0.8540798490211186
0.8192596298149075    0.8468572677301857
0.8232116058029015    0.8402244108823197
0.8271635817908954    0.8342233301612534
0.8311155577788895    0.8288898664584801
0.8350675337668835    0.8242541479513628
0.8390195097548775    0.8203410689519446
0.8429714857428715    0.8171707307489178
0.8469234617308655    0.814758829736579
0.8508754377188594    0.8131169816277455
0.8548274137068534    0.8122529734978684
0.8587793896948475    0.8121709378675941
0.8627313656828415    0.8128714450956284
0.8666833416708355    0.8143515121393625
0.8706353176588294    0.816604527376324
0.8745872936468234    0.8196200928006705
0.8785392696348174    0.8233837866522384
0.8824912456228114    0.8278768515338544
0.8864432216108055    0.8330758154481996
0.8903951975987995    0.8389520560432622
0.8943471735867934    0.8454713217708709
0.8982991495747874    0.8525932276692176
0.9022511255627814    0.8602707480496997
0.9062031015507754    0.8684497333924206
0.9101550775387695    0.8770684840211695
0.9141070535267635    0.8860574183020407
0.9180590295147574    0.8953388777156921
0.9220110055027514    0.9048271145759198
0.9259629814907454    0.9144285096655693
0.9299149574787394    0.924042065811727
0.9338669334667334    0.9335602185957798
0.9378189094547275    0.9428699962663365
0.9417708854427214    0.951854547018339
0.9457228614307154    0.9603950330545423
0.9496748374187094    0.9683728677574578
0.9536268134067034    0.9756722460549576
0.9575787893946974    0.9821828905665964
0.9615307653826914    0.9878029099169642
0.9654827413706853    0.9924416436679897
0.9694347173586794    0.9960223536930595
0.9733866933466734    0.9984846171461095
0.9773386693346674    0.9997862832554422
0.9812906453226614    0.9999048755026152
0.9852426213106554    0.9988383513181759
0.9891945972986493    0.996605170706838
0.9931465732866434    0.99324366943327
0.9970985492746374    0.9888107770596952
1.0010505252626314    0.983380160667205
1.0050025012506254    0.9770399075614937
1.0089544772386194    0.9698898818677492
1.0129064532266134    0.9620388993505381
1.0168584292146075    0.9536018622846731
1.0208104052026015    0.9446969833219566
1.0247623811905955    0.9354432065682309
1.0287143571785895    0.9259579085030789
1.0326663331665833    0.9163549339501162
1.0366183091545773    0.9067429956835733
1.0405702851425713    0.8972244424713287
1.0445222611305653    0.8878943807268707
1.0484742371185594    0.8788401200979283
1.0524262131065534    0.8701409032915725
1.0563781890945474    0.8618678748171328
1.0603301650825414    0.8540842414340382
1.0642821410705354    0.8468455781056023
1.0682341170585294    0.8402002363526464
1.0721860930465235    0.8341898163138203
1.0761380690345175    0.8288496689118573
1.0800900450225113    0.8242093997960629
1.0840420210105053    0.8202933518200555
1.0879939969984993    0.8171210474862265
1.0919459729864933    0.814707576918081
1.0958979489744873    0.8130639204671968
1.0998499249624814    0.8121971980463274
1.1038019009504754    0.8121108397734114
1.1077538769384694    0.8128046746135579
1.1117058529264634    0.8142749355377884
1.1156578289144574    0.8165141814100454
1.1196098049024514    0.8195111375035917
1.1235617808904454    0.8232504583692983
1.1275137568784395    0.8277124188593934
1.1314657328664335    0.8328725415655288
1.1354177088544273    0.8387011718516343
1.1393696848424213    0.8451630151090567
1.1433216608304153    0.8522166548447483
1.1472736368184093    0.8598140746788152
1.1512256128064033    0.867900212137393
1.1551775887943974    0.8764125770384686
1.1591295647823914    0.8852809719206762
1.1630815407703854    0.8944273558688423
1.1670335167583794    0.903765895633643
1.1709854927463734    0.9132032484179353
1.1749374687343674    0.922639118356398
1.1788894447223615    0.9319671228323964
1.1828414207103553    0.9410759947895113
1.1867933966983493    0.9498511328198511
1.1907453726863433    0.9581764921829846
1.1946973486743373    0.9659367877065981
1.1986493246623313    0.9730199550349761
1.2026013006503253    0.9793197918214822
1.2065532766383193    0.9847386775917603
1.2105052526263134    0.9891902527786777
1.2144572286143074    0.9926019264151287
1.2184092046023014    0.9949170802674869
1.2223611805902954    0.9960968460505069
1.2263131565782894    0.996121351884375
1.2302651325662832    0.9949903631473875
1.2342171085542772    0.9927232789293008
1.2381690845422713    0.9893584850371755
1.2421210605302653    0.9849521040819
1.2460730365182593    0.9795762187495183
1.2500250125062533    0.9733166726721201
1.2539769884942473    0.9662705720804372
1.2579289644822413    0.9585436195958712
1.2618809404702354    0.9502474093181239
1.2658329164582294    0.9414968011014835
1.2697848924462234    0.9324074736996255
1.2737368684342172    0.9230937338250118
1.2776888444222112    0.9136666336872103
1.2816408204102052    0.9042324255477693
1.2855927963981992    0.8948913600771607
1.2895447723861932    0.8857368170548359
1.2934967483741873    0.876854742859065
1.2974487243621813    0.8683233593729951
1.3014007003501753    0.8602131031087776
1.3053526763381693    0.8525867509751628
1.3093046523261633    0.8454996894953144
1.3132566283141573    0.8390002866940426
1.3172086043021514    0.8331303296313796
1.3211605802901452    0.8279254950687978
1.3251125562781392    0.823415825537527
1.3290645322661332    0.8196261877807081
1.3330165082541272    0.81657669492272
1.3369684842421212    0.814283077640731
1.3409204602301152    0.8127569930185136
1.3448724362181093    0.8120062626579061
1.3488244122061033    0.8120350340634697
1.3527763881940973    0.8128438613893592
1.3567283641820913    0.8144297034546851
1.3606803401700853    0.8167858386199947
1.3646323161580791    0.8199016978053213
1.3685842921460731    0.8237626187540057
1.3725362681340672    0.82834952673701
1.3764882441220612    0.8336385493699564
1.3804402201100552    0.8396005761810368
1.3843921960980492    0.8462007770933158
1.3883441720860432    0.8533980980951992
1.3922961480740372    0.8611447570306886
1.3962481240620312    0.8693857675241423
1.4002001000500253    0.8780585243342958
1.4041520760380193    0.8870924885548471
1.4081040520260133    0.896409015549521
1.412056028014007    0.9059213716951148
1.416008004002001    0.9155349871524496
1.4199599799899951    0.9251479901678556
1.4239119559779891    0.9346520630100579
1.4278639319659832    0.9439336498785988
1.4318159079539772    0.952875532560511
1.4357678839419712    0.9613587702744766
1.4397198599299652    0.969264976621552
1.4436718359179592    0.9764788801414356
1.4476238119059532    0.9828910876451289
1.4515757878939473    0.9884009438601032
1.4555277638819413    0.9929193599574153
1.459479739869935    0.9963714702118729
1.463431715857929    0.9986989729059715
1.467383691845923    0.9998620202356896
1.4713356678339171    0.9998405427152834
1.4752876438219111    0.9986349251994351
1.4792396198099051    0.9962659914625126
1.4831915957978992    0.9927742984488193
1.4871435717858932    0.9882187853523643
1.4910955477738872    0.9826748621389958
1.4950475237618812    0.9762320531996667
1.4989994997498752    0.9689913319238721
1.502951475737869    0.9610622899893356
1.506903451725863    0.9525602814645755
1.510855427713857    0.9436036680837554
1.514807403701851    0.9343112708377024
1.518759379689845    0.92480010731142
1.522711355677839    0.9151834669374823
1.5266633316658331    0.905569350090057
1.5306153076538271    0.8960592736634465
1.5345672836418212    0.8867474267040655
1.5385192596298152    0.8777201453577504
1.5424712356178092    0.8690556668449585
1.5464232116058032    0.86082411695294
1.550375187593797    0.853087683942079
1.554327163581791    0.8459009329903594
1.558279139569785    0.839311218527431
1.562231115557779    0.8333591562938373
1.566183091545773    0.8280791220780253
1.570135067533767    0.8234997493485359
1.574087043521761    0.8196444030649965
1.5780390195097551    0.8165316115973223
1.5819909954977491    0.8141754427913056
1.5859429714857431    0.8125858137575164
1.5898949474737372    0.8117687269581144
1.5938469234617312    0.8117264276970685
1.597798899449725    0.8124574802866438
1.601750875437719    0.8139567620888406
1.605702851425713    0.8162153764455713
1.609654827413707    0.8192204873485003
1.613606803401701    0.8229550806869056
1.617558779389695    0.8273976591661336
1.621510755377689    0.8325218806079153
1.625462731365683    0.8382961523947463
1.629414707353677    0.8446831983306986
1.6333666833416711    0.851639618130781
1.6373186593296651    0.8591154640187958
1.641270635317659    0.8670538633191538
1.645222611305653    0.8753907201785547
1.649174587293647    0.8840545332464579
1.653126563281641    0.892966368770054
1.657078539269635    0.9020400295257667
1.661030515257629    0.9111824586756738
1.664982491245623    0.920294413386035
1.668934467233617    0.929271435368143
1.672886443221611    0.9380051341081028
1.676838419209605    0.9463847834796775
1.680790395197599    0.9542992141467168
1.6847423711855931    0.961638963608948
1.688694347173587    0.9682986243624743
1.692646323161581    0.9741793102727753
1.696598299149575    0.9791911439710186
1.700550275137569    0.9832556559593784
1.704502251125563    0.9863079809385793
1.708454227113557    0.9882987398753333
1.712406203101551    0.9891955079393375
1.716358179089545    0.9889837881683408
1.720310155077539    0.9876674371574249
1.724262131065533    0.9852685200294873
1.728214107053527    0.981826604721407
1.732166083041521    0.9773975373191013
1.7361180590295149    0.9720517680635732
1.740070035017509    0.9658723194820321
1.744022011005503    0.958952502351641
1.747973986993497    0.9513934912107378
1.751925962981491    0.9433018690908408
1.755877938969485    0.9347872420096073
1.759829914957479    0.9259600090691499
1.763781890945473    0.9169293556048779
1.767733866933467    0.9078015166680649
1.771685842921461    0.8986783379997718
1.775637818909455    0.8896561430544598
1.7795897948974488    0.8808248986393528
1.7835417708854429    0.8722676589918731
1.7874937468734369    0.8640602588527535
1.791445722861431    0.8562712201955298
1.795397698849425    0.8489618343840966
1.799349674837419    0.8421863811355291
1.803301650825413    0.8359924471869488
1.807253626813407    0.8304213104292819
1.811205602801401    0.8255083589585225
1.815157578789395    0.8212835185722016
1.819109554777389    0.8177716663688276
1.823061530765383    0.8149930120517619
1.8270135067533768    0.8129634321474402
1.8309654827413708    0.811694745547834
1.8349174587293648    0.8111949215687032
1.8388694347173589    0.8114682141160429
1.8428214107053529    0.8125152176473299
1.846773386693347    0.8143328425007985
1.850725362681341    0.8169142089613086
1.854677338669335    0.8202484612615792
1.858629314657329    0.8243205047118667
1.862581290645323    0.8291106714359994
1.866533266633317    0.8345943228818303
1.870485242621311    0.8407414004636538
1.8744372186093048    0.8475159394428115
1.8783891945972988    0.85487556547049
1.8823411705852928    0.862770998043929
1.8862931465732868    0.8711455903137091
1.8902451225612809    0.8799349399626583
1.8941970985492749    0.88906661086288
1.8981490745372689    0.8984600093736778
1.902101050525263    0.9080264618020277
1.906053026513257    0.9176695399355399
1.910005002501251    0.9272856788530853
1.913956978489245    0.9367651246413087
1.9179089544772387    0.9459932385829888
1.9218609304652328    0.9548521685404512
1.9258129064532268    0.9632228778109143
1.9297648824412208    0.9709874974680672
1.9337168584292148    0.9780319416000695
1.9376688344172088    0.9842486980580596
1.9416208104052028    0.9895396830262424
1.9455727863931969    0.9938190288647327
1.9495247623811909    0.9970156640867611
1.953476738369185    0.9990755442649881
1.957428714357179    0.9999634043581116
1.961380690345173    0.9996639263079685
1.9653326663331667    0.9981822492022209
1.9692846423211607    0.9955437898864391
1.9732366183091548    0.9917933856932124
1.9771885942971488    0.9869938135286987
1.9811405702851428    0.9812237766936436
1.9850925462731368    0.9745754790736147
1.9890445222611308    0.9671519235003039
1.9929964982491248    0.9590640764039042
1.9969484742371189    0.9504280350066667
2.000900450225113    0.9413623180802189
2.0048524262131067    0.9319853793064209
2.0088044022011005    0.9224134164651445
2.0127563781890947    0.9127585228454758
2.0167083541770885    0.9031272018396088
2.0206603301650827    0.8936192434121434
2.0246123061530765    0.8843269431377914
2.0285642821410708    0.8753346312156607
2.0325162581290646    0.8667184702137565
