omega:    Tc: 
0.1    0.8246448842884548
0.10395197598799401    0.8206632049936475
0.107903951975988    0.8174247823657633
0.111855927963982    0.8149453975373377
0.11580790395197599    0.8132367395219254
0.11975987993996999    0.8123066653918443
0.12371185592796399    0.8121593820439101
0.12766383191595798    0.8127955458638134
0.131615807903952    0.814212278379495
0.135567783891946    0.8164030976112799
0.13951975987993998    0.8193577664187173
0.143471735867934    0.8230620608485011
0.14742371185592798    0.8274974634386304
0.15137568784392197    0.8326407887547259
0.15532766383191599    0.8384637512317508
0.15927963981990997    0.8449324887468832
0.16323161580790396    0.8520070592938995
0.16718359179589798    0.8596409326444343
0.17113556778389194    0.8677805038658145
0.17508754377188596    0.8763646608163098
0.17903951975987994    0.8853244429324327
0.18299149574787393    0.8945828332966026
0.18694347173586795    0.9040547295230004
0.19089544772386194    0.9136471406922753
0.19484742371185593    0.9232596565819132
0.19879939969984994    0.9327852309442255
0.20275137568784393    0.942111311837204
0.20670335167583792    0.9511213385103314
0.21065532766383194    0.9596966059793135
0.21460730365182593    0.9677184756385788
0.21855927963981991    0.9750708841835993
0.22251125562781393    0.9816430755968671
0.22646323161580792    0.987332454498169
0.2304152076038019    0.9920474367282567
0.23436718359179592    0.9957101576853093
0.2383191595797899    0.9982588933791272
0.2422711355677839    0.9996500552900232
0.24622311155577792    0.999859638541994
0.25017508754377193    0.9988840327300479
0.2541270635317659    0.9967401435499497
0.25807903951975986    0.9934648174590281
0.2620310155077539    0.9891136064678012
0.2659829914957479    0.9837589512268794
0.2699349674837419    0.9774878937990574
0.2738869434717359    0.9703994539921095
0.2778389194597299    0.9626018134506045
0.28179089544772384    0.9542094499945488
0.28574287143571786    0.9453403524429946
0.2896948474237119    0.936113425852074
0.2936468234117059    0.9266461717196475
0.2975987993996999    0.9170527002930041
0.30155077538769387    0.9074421053458611
0.30550275137568783    0.8979172077500421
0.30945472736368185    0.8885736542254121
0.31340670335167586    0.8794993424774592
0.3173586793396699    0.8707741335914442
0.3213106553276639    0.8624698066607405
0.32526263131565786    0.854650208510795
0.3292146073036518    0.8473715522262508
0.33316658329164583    0.8406828211651731
0.33711855927963985    0.8346262394848114
0.34107053526763387    0.8292377752583926
0.34502251125562783    0.8245476475214673
0.34897448724362184    0.8205808136790502
0.3529264632316158    0.8173574183888301
0.3568784392196098    0.814893189177192
0.36083041520760384    0.8131997675965688
0.36478239119559785    0.8122849677126183
0.36873436718359187    0.8121529561837715
0.3726863431715858    0.812804350260924
0.3766383191595798    0.8142362318102703
0.3805902951475738    0.8164420770779818
0.3845422711355678    0.8194116035084167
0.38849424712356184    0.8231305366353969
0.39244622311155586    0.82758030202235
0.39639819909954976    0.8327376495554303
0.4003501750875438    0.8385742202003059
0.4043021510755378    0.8450560686962185
0.4082541270635318    0.852143159616654
0.41220610305152583    0.8597888587517821
0.41615807903951973    0.867939446761586
0.42011005502751375    0.8765336873064036
0.42406203101550777    0.8855024870572266
0.4280140070035018    0.894768689657147
0.4319659829914958    0.9042470492412262
0.4359179589794898    0.9138444307905811
0.4398699349674837    0.9234602835760126
0.44382191095547774    0.932987429401985
0.44777388694347176    0.9423131985535347
0.45172586293146577    0.9513209327742561
0.4556778389194598    0.9598918561598213
0.4596298149074538    0.9679072919930893
0.4635817908954477    0.9752511774086045
0.4675337668834417    0.981812800216237
0.47148574287143574    0.9874896557528232
0.47543771885942976    0.9921902992314271
0.4793896948474238    0.9958370537849849
0.4833416708354178    0.9983684289672196
0.4872936468234117    0.9997411107520922
0.4912456228114057    0.9999314026745447
0.49519759879939973    0.9989360277670696
0.49914957478739375    0.9967722399183424
0.5031015507753878    0.9934772374840162
0.5070535267633818    0.9891069169187304
0.5110055027513757    0.9837340452658512
0.5149574787393697    0.9774459635049897
0.5189094547273637    0.9703419551251671
0.5228614307153577    0.962530424457303
0.5268134067033517    0.9541260274132997
0.5307653826913458    0.9452468848558762
0.5347173586793397    0.9360119883620928
0.5386693346673337    0.9265388826477674
0.5426213106553277    0.9169416814269739
0.5465732866433217    0.9073294466752725
0.5505252626313157    0.8978049372266903
0.5544772386193096    0.8884637127246882
0.5584292146073037    0.879393563825507
0.5623811905952977    0.8706742292753298
0.5663331665832917    0.8623773546575414
0.5702851425712857    0.8545666455529175
0.5742371185592797    0.8472981687565413
0.5781890945472736    0.840620758216637
0.5821410705352676    0.8345764867352281
0.5860930465232617    0.8292011695500114
0.5900450225112557    0.8245248711917438
0.5939969984992497    0.8205723921135603
0.5979489744872437    0.8173637162775331
0.6019009504752376    0.8149144050279331
0.6058529264632316    0.8132359261344049
0.6098049024512256    0.8123359098718805
0.6137568784392197    0.812218326484185
0.6177088544272136    0.8128835814539936
0.6216608304152076    0.8143285267923638
0.6256128064032016    0.8165463881979926
0.6295647823911956    0.8195266095565817
0.6335167583791896    0.8232546179915641
0.6374687343671837    0.8277115146715593
0.6414207103551776    0.8328736989489169
0.6453726863431716    0.8387124362503888
0.6493246623311656    0.8451933835387566
0.6532766383191596    0.8522760901426651
0.6572286143071536    0.8599134962797192
0.6611805902951476    0.8680514565623239
0.6651325662831415    0.876628320961323
0.6690845422711356    0.8855746107710394
0.6730365182591296    0.8948128315965753
0.6769884942471236    0.9042574686580276
0.6809404702351176    0.9138152110446061
0.6848924462231116    0.9233854501466495
0.6888444222111055    0.9328610925381288
0.6927963981990996    0.9421297183816237
0.6967483741870936    0.9510751025392028
0.7007003501750876    0.9595790969639452
0.7046523261630816    0.9675238501443797
0.7086043021510756    0.9747943135717776
0.7125562781390695    0.9812809582884381
0.7165082541270635    0.9868825990552772
0.7204602301150576    0.9915092024436788
0.7244122061030516    0.9950845411470515
0.7283641820910456    0.9975485525646677
0.7323161580790395    0.9988592669199019
0.7362681340670335    0.9989941892788273
0.7402201100550275    0.9979510498078462
0.7441720860430215    0.9957478749720434
0.7481240620310156    0.992422375471117
0.7520760380190096    0.9880306901959061
0.7560280140070035    0.982645564973132
0.7599799899949975    0.976354076543773
0.7639319659829915    0.9692550333974654
0.7678839419709855    0.9614561944875235
0.7718359179589795    0.9530714446783323
0.7757878939469736    0.9442180535143436
0.7797398699349675    0.9350141239532417
0.7836918459229615    0.925576312951248
0.7876438219109555    0.9160178791288519
0.7915957978989495    0.9064470867479504
0.7955477738869435    0.8969659718895902
0.7994997498749375    0.8876694573481052
0.8034517258629315    0.8786447879948203
0.8074037018509255    0.8699712482808406
0.8113556778389195    0.861720117777165
0.8153076538269135    0.8539548185469062
0.8192596298149075    0.8467312089269582
0.8232116058029015    0.8400979811624374
0.8271635817908954    0.8340971245450755
0.8311155577788895    0.8287644206249608
0.8350675337668835    0.8241299421958626
0.8390195097548775    0.82021853273473
0.8429714857428715    0.8170502475671658
0.8469234617308655    0.814640742099548
0.8508754377188594    0.8130015959569168
0.8548274137068534    0.8121405648100395
0.8587793896948475    0.8120617541287074
0.8627313656828415    0.8127657111565634
0.8666833416708355    0.8142494331826995
0.8706353176588294    0.8165062918158503
0.8745872936468234    0.819525874584301
0.8785392696348174    0.8232937469251491
0.8824912456228114    0.8277911396233748
0.8864432216108055    0.8329945691367864
0.8903951975987995    0.8388754011022805
0.8943471735867934    0.8453993707376704
0.8982991495747874    0.8525260778648118
0.9022511255627814    0.8602084788560418
0.9062031015507754    0.8683924028382982
0.9101550775387695    0.8770161247652912
0.9141070535267635    0.8860100331512529
0.9180590295147574    0.8952964348747554
0.9220110055027514    0.9047895428904532
0.9259629814907454    0.9143956941873761
0.9299149574787394    0.9240138440791306
0.9338669334667334    0.9335363780721107
0.9378189094547275    0.9428502734066568
0.9417708854427214    0.9518386284265682
0.9457228614307154    0.9603825591397548
0.9496748374187094    0.9683634391915861
0.9536268134067034    0.9756654331721424
0.9575787893946974    0.9821782456322421
0.9615307653826914    0.9877999819464152
0.9654827413706853    0.9924399952138194
0.9694347173586794    0.9960215787768312
0.9733866933466734    0.9984843593186122
0.9773386693346674    0.9997862526604515
0.9812906453226614    0.9999048638163974
0.9852426213106554    0.9988382435501018
0.9891945972986493    0.9966049530686685
0.9931465732866434    0.9932434327926234
0.9970985492746374    0.9888107158501707
1.0010505252626314    0.9833805674899212
1.0050025012506254    0.9770411640372946
1.0089544772386194    0.9698924465502851
1.0129064532266134    0.9620432936652953
1.0168584292146075    0.9536086555102626
1.0208104052026015    0.9447067775846996
1.0247623811905955    0.9354566226977035
1.0287143571785895    0.925975573419973
1.0326663331665833    0.9163774700554295
1.0366183091545773    0.9067710125144577
1.0405702851425713    0.8972585307032488
1.0445222611305653    0.8879351084470251
1.0484742371185594    0.878888031157499
1.0524262131065534    0.8701965174650397
1.0563781890945474    0.8619316894522393
1.0603301650825414    0.8541567342600247
1.0642821410705354    0.8469272108728667
1.0682341170585294    0.8402914589968155
1.0721860930465235    0.8342910713648028
1.0761380690345175    0.8289613958983553
1.0800900450225113    0.8243320394239957
1.0840420210105053    0.8204273497265164
1.0879939969984993    0.8172668573869283
1.0919459729864933    0.814865662974815
1.0958979489744873    0.8132347587022926
1.0998499249624814    0.8123812766237568
1.1038019009504754    0.812308657951791
1.1077538769384694    0.8130167401561155
1.1117058529264634    0.8145017603401727
1.1156578289144574    0.8167562750809328
1.1196098049024514    0.8197689986085697
1.1235617808904454    0.8235245630294561
1.1275137568784395    0.8280032063874834
1.1314657328664335    0.8331803968308592
1.1354177088544273    0.8390264040976125
1.1393696848424213    0.8455058330132927
1.1433216608304153    0.852577137720586
1.1472736368184093    0.860192139878911
1.1512256128064033    0.8682955789433958
1.1551775887943974    0.8768247276123535
1.1591295647823914    0.885709110254213
1.1630815407703854    0.8948703660921533
1.1670335167583794    0.9042223015151132
1.1709854927463734    0.913671176376369
1.1749374687343674    0.9231162667672236
1.1788894447223615    0.9324507407832114
1.1828414207103553    0.9415628736537407
1.1867933966983493    0.950337613992495
1.1907453726863433    0.958658493985163
1.1946973486743373    0.9664098537599941
1.1986493246623313    0.973479325311867
1.2026013006503253    0.9797604961184782
1.2065532766383193    0.9851556494432054
1.2105052526263134    0.9895784599674371
1.2144572286143074    0.9929565124535449
1.2184092046023014    0.9952335097360446
1.2223611805902954    0.9963710457157249
1.2263131565782894    0.9963498392441559
1.2302651325662832    0.9951703545633732
1.2342171085542772    0.9928527707882415
1.2381690845422713    0.9894363033134591
1.2421210605302653    0.984977920034192
1.2460730365182593    0.9795505310002787
1.2500250125062533    0.9732407583013296
1.2539769884942473    0.9661464113594509
1.2579289644822413    0.9583738004104504
1.2618809404702354    0.950035018089731
1.2658329164582294    0.9412453071159215
1.2697848924462234    0.932120613275453
1.2737368684342172    0.922775399839417
1.2776888444222112    0.9133207747886746
1.2816408204102052    0.9038629580856351
1.2855927963981992    0.8945020945083539
1.2895447723861932    0.8853313994526602
1.2934967483741873    0.8764366112140912
1.2974487243621813    0.8678957136707153
1.3014007003501753    0.8597788876920773
1.3053526763381693    0.8521486474294833
1.3093046523261633    0.8450601181958958
1.3132566283141573    0.8385614151878286
1.3172086043021514    0.8326940861515939
1.3211605802901452    0.827493585662634
1.3251125562781392    0.8229897534976671
1.3290645322661332    0.8192072742872203
1.3330165082541272    0.8161661000074163
1.3369684842421212    0.8138818207710695
1.3409204602301152    0.8123659727570156
1.3448724362181093    0.8116262749836507
1.3488244122061033    0.8116667890449945
1.3527763881940973    0.8124879979752876
1.3567283641820913    0.8140868022029236
1.3606803401700853    0.8164564322223966
1.3646323161580791    0.8195862792866957
1.3685842921460731    0.8234616472371974
1.3725362681340672    0.8280634306746331
1.3764882441220612    0.8333677271537625
1.3804402201100552    0.8393453940578355
1.3843921960980492    0.8459615643479665
1.3883441720860432    0.8531751395129311
1.3922961480740372    0.8609382827288858
1.3962481240620312    0.869195940353031
1.4002001000500253    0.8778854251901136
1.4041520760380193    0.8869361001284425
1.4081040520260133    0.8962692052439669
1.412056028014007    0.9057978746776514
1.416008004002001    0.9154273907417589
1.4199599799899951    0.925055720971832
1.4239119559779891    0.9345743783890146
1.4278639319659832    0.9438696353757887
1.4318159079539772    0.9528241068760086
1.4357678839419712    0.9613186991248165
1.4397198599299652    0.969234896403635
1.4436718359179592    0.976457331703993
1.4476238119059532    0.9828765596917864
1.4515757878939473    0.9883919246243954
1.4555277638819413    0.9929143948920214
1.459479739869935    0.9963692226335864
1.463431715857929    0.998698283952155
1.467383691845923    0.9998619642208053
1.4713356678339171    0.9998404740956163
1.4752876438219111    0.9986345138767436
1.4792396198099051    0.9962652440392954
1.4831915957978992    0.9927735641897593
1.4871435717858932    0.9882187468684513
1.4910955477738872    0.9826765120367276
1.4950475237618812    0.9762366589821656
1.4989994997498752    0.9690003921828076
1.502951475737869    0.9610774853251578
1.506903451725863    0.9525834236111659
1.510855427713857    0.9436366504342206
1.514807403701851    0.9343560230472393
1.518759379689845    0.9248585559850402
1.522711355677839    0.9152575036891027
1.5266633316658331    0.9056608075662572
1.5306153076538271    0.896169909519963
1.5345672836418212    0.8868789150416834
1.5385192596298152    0.8778740747799099
1.5424712356178092    0.8692335440872037
1.5464232116058032    0.8610273749368818
1.550375187593797    0.8533176930994966
1.554327163581791    0.8461590147598895
1.558279139569785    0.8395986600219516
1.562231115557779    0.8336772252493283
1.566183091545773    0.8284290813073345
1.570135067533767    0.8238828700234205
1.574087043521761    0.8200619762288839
1.5780390195097551    0.8169849573646816
1.5819909954977491    0.81466591671565
1.5859429714857431    0.8131148098493116
1.5898949474737372    0.8123376768085527
1.5938469234617312    0.8123367951176479
1.597798899449725    0.8131107508129765
1.601750875437719    0.8146544266270848
1.605702851425713    0.816958908270109
1.609654827413707    0.8200113116011379
1.613606803401701    0.8237945354948946
1.617558779389695    0.8282869475058978
1.621510755377689    0.8334620121140839
1.625462731365683    0.8392878744738533
1.629414707353677    0.8457269162121441
1.6333666833416711    0.8527353039017149
1.6373186593296651    0.8602625552700338
1.641270635317659    0.8682511527956217
1.645222611305653    0.8766362387880688
1.649174587293647    0.8853454299242541
1.653126563281641    0.8942987919862517
1.657078539269635    0.9034090165876891
1.661030515257629    0.9125818403054862
1.664982491245623    0.9217167421936014
1.668934467233617    0.9307079475997999
1.672886443221611    0.9394457542217282
1.676838419209605    0.9478181804645558
1.680790395197599    0.9557129168991013
1.6847423711855931    0.9630195399951981
1.688694347173587    0.9696319248756314
1.692646323161581    0.9754507725936535
1.696598299149575    0.9803861496266945
1.700550275137569    0.9843599251276092
1.704502251125563    0.9873079868756744
1.708454227113557    0.9891821210682643
1.712406203101551    0.9899514544416608
1.716358179089545    0.9896033790338274
1.720310155077539    0.9881439085336341
1.724262131065533    0.9855974481157315
1.728214107053527    0.982005993949808
1.732166083041521    0.9774278110909851
1.7361180590295149    0.971935666373705
1.740070035017509    0.9656147140246286
1.744022011005503    0.958560144602602
1.747973986993497    0.9508747121239319
1.751925962981491    0.9426662502975118
1.755877938969485    0.9340452778819668
1.759829914957479    0.9251227770103665
1.763781890945473    0.9160082088866652
1.767733866933467    0.9068078105226962
1.771685842921461    0.8976231959250093
1.775637818909455    0.8885502667676879
1.7795897948974488    0.8796784220759629
1.7835417708854429    0.8710900443276267
1.7874937468734369    0.8628602307871819
1.791445722861431    0.8550567336335497
1.795397698849425    0.8477400701143369
1.799349674837419    0.8409637640170191
1.803301650825413    0.8347746816032894
1.807253626813407    0.8292134282397416
1.811205602801401    0.8243147757721949
1.815157578789395    0.8201080948169235
1.819109554777389    0.8166177702634463
1.823061530765383    0.8138635821792146
1.8270135067533768    0.811861037843012
1.8309654827413708    0.8106216437504422
1.8349174587293648    0.8101531091304631
1.8388694347173589    0.810459474830723
1.8428214107053529    0.8115411634497038
1.846773386693347    0.8133949484172716
1.850725362681341    0.8160138414700779
1.854677338669335    0.8193868997617166
1.858629314657329    0.8234989558198011
1.862581290645323    0.8283302758405595
1.866533266633317    0.8338561545119707
1.870485242621311    0.8400464577741196
1.8744372186093048    0.846865128720828
1.8783891945972988    0.8542696762299742
1.8823411705852928    0.8622106708203494
1.8862931465732868    0.8706312775170253
1.8902451225612809    0.87946686089592
1.8941970985492749    0.8886447025682327
1.8981490745372689    0.8980838756092044
1.902101050525263    0.907695323146676
1.906053026513257    0.9173821887072662
1.910005002501251    0.9270404431255415
1.913956978489245    0.9365598460535953
1.9179089544772387    0.9458252687387126
1.9218609304652328    0.9547183884704906
1.9258129064532268    0.9631197441339563
1.9297648824412208    0.9709111174744338
1.9337168584292148    0.977978177528058
1.9376688344172088    0.9842132984372536
1.9416208104052028    0.9895184363339747
1.9455727863931969    0.9938079321688627
1.9495247623811909    0.9970110971699833
1.953476738369185    0.9990744382825747
1.957428714357179    0.9999633936493837
1.961380690345173    0.9996634727169945
1.9653326663331667    0.998180730156438
1.9692846423211607    0.9955415443476479
1.9732366183091548    0.9917917155955367
1.9771885942971488    0.9869949420169821
1.9811405702851428    0.9812307679162534
1.9850925462731368    0.9745921270655007
1.9890445222611308    0.9671826195355541
1.9929964982491248    0.9591136649776945
1.9969484742371189    0.9505016683582275
2.000900450225113    0.9414653180566435
2.0048524262131067    0.9321231136424721
2.0088044022011005    0.9225911945002907
2.0127563781890947    0.9129815135851599
2.0167083541770885    0.9034003753124491
2.0206603301650827    0.8939473346298171
2.0246123061530765    0.8847144367095632
2.0285642821410708    0.8757857638215745
2.0325162581290646    0.8672372476680245
