omega:    Tc: 
0.1    0.8246444990163857
0.10395197598799401    0.8206628272343144
0.107903951975988    0.81742442478311
0.111855927963982    0.8149450758275634
0.11580790395197599    0.8132364730126733
0.11975987993996999    0.8123064777454938
0.12371185592796399    0.8121593020727735
0.12766383191595798    0.8127956084630115
0.131615807903952    0.8142125255801207
0.135567783891946    0.8164035797518407
0.13951975987993998    0.8193585434263253
0.143471735867934    0.823063203612513
0.14742371185592798    0.8274990552479567
0.15137568784392197    0.8326429267555366
0.15532766383191599    0.8384665478446087
0.15927963981990997    0.8449360729614621
0.16323161580790396    0.8520115777358576
0.16718359179589798    0.8596465502836589
0.17113556778389194    0.8677874042098115
0.17508754377188596    0.876373045409515
0.17903951975987994    0.8853345299651338
0.18299149574787393    0.8945948551204794
0.18694347173586795    0.9040689288791057
0.19089544772386194    0.913663765487287
0.19484742371185593    0.9232789531047207
0.19879939969984994    0.9328074355012195
0.20275137568784393    0.9421366409020234
0.20670335167583792    0.9511499776292334
0.21065532766383194    0.9597286978384507
0.21460730365182593    0.9677541078699228
0.21855927963981991    0.9751100776421293
0.22251125562781393    0.9816857739589244
0.22646323161580792    0.9873785160846713
0.2304152076038019    0.9920966294252169
0.23436718359179592    0.9957621577045523
0.2383191595797899    0.9983132883736037
0.2422711355677839    0.9997063520254607
0.24622311155577792    0.9999172749598337
0.25017508754377193    0.9989423938576902
0.2541270635317659    0.9967985803709385
0.25807903951975986    0.9935226675929756
0.2620310155077539    0.9891702153619917
0.2659829914957479    0.9838136925461085
0.2699349674837419    0.9775401878150738
0.2738869434717359    0.9704487829982806
0.2778389194597299    0.962647733526537
0.28179089544772384    0.954251598777839
0.28574287143571786    0.9453784528901356
0.2896948474237119    0.9361472862536491
0.2936468234117059    0.9266756824528898
0.2975987993996999    0.917077827936659
0.30155077538769387    0.9074628848481859
0.30550275137568783    0.8979337333398848
0.30945472736368185    0.8885860697031961
0.31340670335167586    0.8795078314342635
0.3173586793396699    0.8707789099966026
0.3213106553276639    0.8624711061453906
0.32526263131565786    0.8546482805672602
0.3292146073036518    0.8473666534481538
0.33316658329164583    0.8406752095746202
0.33711855927963985    0.8346161699321482
0.34107053526763387    0.8292254958361929
0.34502251125562783    0.8245333969057351
0.34897448724362184    0.8205648192945012
0.3529264632316158    0.8173398952888874
0.3568784392196098    0.8148743395303015
0.36083041520760384    0.8131797806762788
0.36478239119559785    0.8122640202976004
0.36873436718359187    0.8121312132839642
0.3726863431715858    0.8127819660960387
0.3766383191595798    0.8142133509760929
0.3805902951475738    0.8164188358435276
0.3845422711355678    0.819388131192678
0.38849424712356184    0.8231069570157967
0.39244622311155586    0.827556734728021
0.39639819909954976    0.8327142113970778
0.4003501750875438    0.8385510263848546
0.4043021510755378    0.8450332338690951
0.4082541270635318    0.852120798668063
0.41220610305152583    0.8597670873165406
0.41615807903951973    0.8679183813363948
0.42011005502751375    0.876513444905354
0.42406203101550777    0.88548318432799
0.4280140070035018    0.8947504413888525
0.4319659829914958    0.904229966212843
0.4359179589794898    0.9138286169377545
0.4398699349674837    0.9234458324960829
0.44382191095547774    0.9329744202714231
0.44777388694347176    0.9423016915975384
0.45172586293146577    0.9513109645005592
0.4556778389194598    0.9598834346411844
0.4596298149074538    0.9679003925462406
0.4635817908954477    0.9752457390607207
0.4675337668834417    0.9818087233622115
0.47148574287143574    0.9874868013781715
0.47543771885942976    0.9921884900012534
0.4793896948474238    0.9958360771796275
0.4833416708354178    0.9983680424880084
0.4872936468234117    0.9997410490414504
0.4912456228114057    0.9999313862145672
0.49519759879939973    0.9989357726634464
0.49914957478739375    0.9967714681642822
0.5031015507753878    0.9934756870482063
0.5070535267633818    0.9891043510199544
0.5110055027513757    0.9837302602818314
0.5149574787393697    0.977440795101705
0.5189094547273637    0.970335282365514
0.5228614307153577    0.9625221718313383
0.5268134067033517    0.9541161649041094
0.5307653826913458    0.94523542629733
0.5347173586793397    0.9359989884458815
0.5386693346673337    0.9265244329929957
0.5426213106553277    0.9169259061384138
0.5465732866433217    0.9073124977933669
0.5505252626313157    0.8977869904233907
0.5544772386193096    0.888444963534885
0.5584292146073037    0.8793742246339762
0.5623811905952977    0.8706545272116225
0.5663331665832917    0.8623575304916546
0.5702851425712857    0.8545469536360192
0.5742371185592797    0.8472788780145923
0.5781890945472736    0.8406021541798973
0.5821410705352676    0.8345588745717774
0.5860930465232617    0.8291848780642361
0.5900450225112557    0.8245102577466439
0.5939969984992497    0.8205598484360804
0.5979489744872437    0.8173536751062105
0.6019009504752376    0.8149073475595516
0.6058529264632316    0.8132323902185756
0.6098049024512256    0.8123364988871742
0.6137568784392197    0.8122237188043485
0.6177088544272136    0.8128945403755601
0.6216608304152076    0.8143459107433637
0.6256128064032016    0.8165711609794515
0.6295647823911956    0.8195598502822895
0.6335167583791896    0.8232975302861835
0.6374687343671837    0.8277654345626111
0.6414207103551776    0.8329401007463548
0.6453726863431716    0.8387929355527453
0.6493246623311656    0.8452897363450032
0.6532766383191596    0.8523901868961539
0.6572286143071536    0.8600473495423249
0.6611805902951476    0.8682071809364788
0.6651325662831415    0.8768081038741697
0.6690845422711356    0.8857806728424502
0.6730365182591296    0.8950473755677646
0.6769884942471236    0.9045226162948041
0.6809404702351176    0.9141129280759047
0.6848924462231116    0.9237174601660151
0.6888444222111055    0.9332287818691472
0.6927963981990996    0.942534035139672
0.6967483741870936    0.95151645442177
0.7007003501750876    0.9600572535378908
0.7046523261630816    0.9680378564018386
0.7086043021510756    0.97534242210716
0.7125562781390695    0.9818605874235442
0.7165082541270635    0.9874903234646841
0.7204602301150576    0.9921407812430554
0.7244122061030516    0.9957349860473164
0.7283641820910456    0.9982122357352787
0.7323161580790395    0.9995300649354733
0.7362681340670335    0.9996656563217869
0.7402201100550275    0.9986166105737713
0.7441720860430215    0.9964010258423363
0.7481240620310156    0.9930568817415304
0.7520760380190096    0.9886407675841913
0.7560280140070035    0.9832260352036073
0.7599799899949975    0.9769004892892055
0.7639319659829915    0.9697637499034772
0.7678839419709855    0.9619244314167612
0.7718359179589795    0.9534972797147958
0.7757878939469736    0.9446003967618213
0.7797398699349675    0.9353526609549425
0.7836918459229615    0.925871426179274
0.7876438219109555    0.9162705550781238
0.7915957978989495    0.9066588154353399
0.7955477738869435    0.8971386447669552
0.7994997498749375    0.8878052685627678
0.8034517258629315    0.8787461427353556
0.8074037018509255    0.8700406807630514
0.8113556778389195    0.8617602203509588
0.8153076538269135    0.8539681824980635
0.8192596298149075    0.8467203768344231
0.8232116058029015    0.8400654101522462
0.8271635817908954    0.8340451594394263
0.8311155577788895    0.8286952757923651
0.8350675337668835    0.8240456908346785
0.8390195097548775    0.8201211023369128
0.8429714857428715    0.8169414203837639
0.8469234617308655    0.8145221595408001
0.8508754377188594    0.8128747659889108
0.8548274137068534    0.8120068715426364
0.8587793896948475    0.8119224689156228
0.8627313656828415    0.8126220046415
0.8666833416708355    0.8141023878209844
0.8706353176588294    0.81635691447719
0.8745872936468234    0.8193751088983036
0.8785392696348174    0.8231424850677609
0.8824912456228114    0.8276402332606643
0.8864432216108055    0.8328448392448867
0.8903951975987995    0.8387276463718145
0.8943471735867934    0.8452543742517957
0.8982991495747874    0.8523846117174302
0.9022511255627814    0.8600713063575308
0.9062031015507754    0.8682602779485789
0.9101550775387695    0.8768897884078697
0.9141070535267635    0.885890206107921
0.9180590295147574    0.895183807049881
0.9220110055027514    0.9046847588762217
0.9259629814907454    0.9142993352638253
0.9299149574787394    0.9239264070467215
0.9338669334667334    0.9334582516330132
0.9378189094547275    0.942781713166368
0.9417708854427214    0.9517797319498987
0.9457228614307154    0.9603332428225648
0.9496748374187094    0.9683234189502681
0.9536268134067034    0.9756342110513361
0.9575787893946974    0.9821551043372649
0.9615307653826914    0.9877839889858111
0.9654827413706853    0.9924300177812606
0.9694347173586794    0.9960163097372927
0.9733866933466734    0.9984823537559903
0.9773386693346674    0.9997859734905871
0.9812906453226614    0.9999047340892608
0.9852426213106554    0.9988367023777234
0.9891945972986493    0.9966005117212595
0.9931465732866434    0.9932347274644264
0.9970985492746374    0.9887965539175461
1.0010505252626314    0.9833599647216902
1.0050025012506254    0.9770133710814074
1.0089544772386194    0.9698569639940307
1.0129064532266134    0.9619998759255803
1.0168584292146075    0.9535573046477179
1.0208104052026015    0.9446477287729173
1.0247623811905955    0.9353903234767713
1.0287143571785895    0.9259026590193085
1.0326663331665833    0.9162987370129445
1.0366183091545773    0.9066873925957677
1.0405702851425713    0.8971710667932336
1.0445222611305653    0.8878449337027756
1.0484742371185594    0.8787963523245583
1.0524262131065534    0.8701046029037592
1.0563781890945474    0.8618408621206954
1.0603301650825414    0.8540683696648514
1.0642821410705354    0.8468427398302656
1.0682341170585294    0.8402123749365769
1.0721860930465235    0.8342189418497643
1.0761380690345175    0.8288978780074594
1.0800900450225113    0.8242788986457322
1.0840420210105053    0.820386482018166
1.0879939969984993    0.817240314061995
1.0919459729864933    0.8148556780757262
1.0958979489744873    0.8132437784884824
1.0998499249624814    0.8124119907480996
1.1038019009504754    0.8123640318033666
1.1077538769384694    0.8131000477073428
1.1117058529264634    0.8146166166453876
1.1156578289144574    0.8169066673264858
1.1196098049024514    0.8199593143086672
1.1235617808904454    0.8237596135974768
1.1275137568784395    0.82828824389461
1.1314657328664335    0.8335211213046032
1.1354177088544273    0.8394289582338365
1.1393696848424213    0.8459767807105527
1.1433216608304153    0.8531234224438987
1.1472736368184093    0.8608210185873131
1.1512256128064033    0.8690145272557112
1.1551775887943974    0.8776413121378955
1.1591295647823914    0.886630824690078
1.1630815407703854    0.8959044288964446
1.1670335167583794    0.9053754148002565
1.1709854927463734    0.9149492481843834
1.1749374687343674    0.924524102080039
1.1788894447223615    0.9339917103818474
1.1828414207103553    0.9432385740471831
1.1867933966983493    0.9521475357333443
1.1907453726863433    0.9605997192899638
1.1946973486743373    0.9684768068793589
1.1986493246623313    0.9756635999435723
1.2026013006503253    0.9820507827900872
1.2065532766383193    0.987537781859356
1.2105052526263134    0.9920355927695332
1.2144572286143074    0.9954694340068186
1.2184092046023014    0.9977810831767396
1.2223611805902954    0.9989307606449942
1.2263131565782894    0.9988984464412547
1.2302651325662832    0.9976845482120875
1.2342171085542772    0.9953098780498297
1.2381690845422713    0.9918149402960346
1.2421210605302653    0.987258576412104
1.2460730365182593    0.9817160522669515
1.2500250125062533    0.9752767039560091
1.2539769884942473    0.9680412779938198
1.2579289644822413    0.9601191093599446
1.2618809404702354    0.9516252768700513
1.2658329164582294    0.9426778614022845
1.2697848924462234    0.9333954112125205
1.2737368684342172    0.923894692897167
1.2776888444222112    0.9142887794375963
1.2816408204102052    0.9046855007155756
1.2855927963981992    0.8951862588354041
1.2895447723861932    0.8858851917349986
1.2934967483741873    0.8768686544520967
1.2974487243621813    0.8682149780080266
1.3014007003501753    0.8599944607426653
1.3053526763381693    0.8522695453877284
1.3093046523261633    0.8450951363950711
1.3132566283141573    0.8385190152330511
1.3172086043021514    0.8325823157920456
1.3211605802901452    0.827320027083949
1.3251125562781392    0.8227614956002913
1.3290645322661332    0.8189309046663641
1.3330165082541272    0.8158477126736233
1.3369684842421212    0.8135270360719906
1.3409204602301152    0.8119799664220086
1.3448724362181093    0.8112138136701113
1.3488244122061033    0.8112322701888921
1.3527763881940973    0.8120354921190909
1.3567283641820913    0.8136200962811426
1.3606803401700853    0.815979072523676
1.3646323161580791    0.8191016129819004
1.3685842921460731    0.8229728614685721
1.3725362681340672    0.827573588248374
1.3764882441220612    0.8328797978762728
1.3804402201100552    0.8388622807165447
1.3843921960980492    0.8454861222764701
1.3883441720860432    0.8527101886168151
1.3922961480740372    0.8604866108071612
1.3962481240620312    0.8687602965593948
1.4002001000500253    0.877468502571251
1.4041520760380193    0.886540506388541
1.4081040520260133    0.8958974212500308
1.412056028014007    0.9054522007675574
1.416008004002001    0.9151098816421512
1.4199599799899951    0.9247681110707626
1.4239119559779891    0.9343180002040564
1.4278639319659832    0.943645335240783
1.4318159079539772    0.9526321630270423
1.4357678839419712    0.9611587483496573
1.4397198599299652    0.969105876054583
1.4436718359179592    0.9763574439842573
1.4476238119059532    0.9828032645598646
1.4515757878939473    0.9883419663320139
1.4555277638819413    0.992883865088172
1.459479739869935    0.9963536602576853
1.463431715857929    0.9986928090525681
1.467383691845923    0.9998614397180373
1.4713356678339171    0.9998396867600127
1.4752876438219111    0.9986283637898339
1.4792396198099051    0.9962489308511002
1.4831915957978992    0.9927427587218867
1.4871435717858932    0.9881697380191776
1.4910955477738872    0.9826063213224179
1.4950475237618812    0.9761431180687348
1.4989994997498752    0.9688821820206139
1.502951475737869    0.9609341386015184
1.506903451725863    0.9524152948432926
1.510855427713857    0.9434448599186003
1.514807403701851    0.9341423819635799
1.518759379689845    0.9246254802476956
1.522711355677839    0.9150079237629225
1.5266633316658331    0.9053980805899716
1.5306153076538271    0.8958977389008114
1.5345672836418212    0.8866012813811476
1.5385192596298152    0.87759518071131
1.5424712356178092    0.8689577744586189
1.5464232116058032    0.8607592728209426
1.550375187593797    0.8530619513802823
1.554327163581791    0.8459204825316046
1.558279139569785    0.8393823627087547
1.562231115557779    0.8334883971831588
1.566183091545773    0.8282732094382846
1.570135067533767    0.8237657474424491
1.574087043521761    0.8199897642156022
1.5780390195097551    0.8169642546980431
1.5819909954977491    0.8147038349717393
1.5859429714857431    0.8132190533313344
1.5898949474737372    0.8125166255867114
1.5938469234617312    0.8125995893809433
1.597798899449725    0.8134673743344583
1.601750875437719    0.8151157866054258
1.605702851425713    0.8175369081251744
1.609654827413707    0.820718912468199
1.613606803401701    0.824645801190399
1.617558779389695    0.8292970666515009
1.621510755377689    0.8346472899498192
1.625462731365683    0.8406656857380843
1.629414707353677    0.8473156094210827
1.6333666833416711    0.8545540465705999
1.6373186593296651    0.8623311092698682
1.641270635317659    0.8705895693637118
1.645222611305653    0.8792644639697778
1.649174587293647    0.8882828136924197
1.653126563281641    0.8975634982186427
1.657078539269635    0.9070173366687946
1.661030515257629    0.9165474204149897
1.664982491245623    0.9260497432094709
1.668934467233617    0.9354141665715696
1.672886443221611    0.9445257468349444
1.676838419209605    0.9532664337664509
1.680790395197599    0.9615171294517639
1.6847423711855931    0.9691600710679165
1.688694347173587    0.9760814738253258
1.692646323161581    0.9821743430587253
1.696598299149575    0.9873413400170201
1.700550275137569    0.9914975674207611
1.704502251125563    0.9945731312093207
1.708454227113557    0.9965153363026651
1.712406203101551    0.9972903877471797
1.716358179089545    0.9968844939530168
1.720310155077539    0.9953043039772067
1.724262131065533    0.9925766527123187
1.728214107053527    0.9887476322150922
1.732166083041521    0.9838810497293438
1.7361180590295149    0.9780563690309899
1.740070035017509    0.971366258284823
1.744022011005503    0.9639138827223768
1.747973986993497    0.9558100836900899
1.751925962981491    0.9471705779350705
1.755877938969485    0.9381132944400172
1.759829914957479    0.92875594340265
1.763781890945473    0.9192138860014494
1.767733866933467    0.9095983471341409
1.771685842921461    0.9000149886147604
1.775637818909455    0.8905628389874596
1.7795897948974488    0.8813335591032418
1.7835417708854429    0.8724110102370617
1.7874937468734369    0.8638710836306573
1.791445722861431    0.8557817464182282
1.795397698849425    0.848203258215386
1.799349674837419    0.8411885144401969
1.803301650825413    0.8347834759240547
1.807253626813407    0.8290276488805273
1.811205602801401    0.8239545842733224
1.815157578789395    0.819592370632906
1.819109554777389    0.8159640991158787
1.823061530765383    0.8130882838948432
1.8270135067533768    0.8109792247172523
1.8309654827413708    0.8096473016605377
1.8349174587293648    0.8090991947750931
1.8388694347173589    0.8093380235230572
1.8428214107053529    0.8103634027937545
1.846773386693347    0.8121714139281712
1.850725362681341    0.814754490748189
1.854677338669335    0.8181012222001991
1.858629314657329    0.8221960750264939
1.862581290645323    0.827019042006895
1.866533266633317    0.8325452238912884
1.870485242621311    0.8387443562754967
1.8744372186093048    0.8455802964294663
1.8783891945972988    0.8530104894908401
1.8823411705852928    0.8609854384413618
1.8862931465732868    0.869448207748279
1.8902451225612809    0.8783339962196536
1.8941970985492749    0.8875698200921716
1.8981490745372689    0.8970743520888966
1.902101050525263    0.9067579654426307
1.906053026513257    0.9165230328384667
1.910005002501251    0.9262645279715558
1.913956978489245    0.9358709710497202
1.9179089544772387    0.945225748357604
1.9218609304652328    0.9542088195288663
1.9258129064532268    0.9626988045436438
1.9297648824412208    0.9705754164565908
1.9337168584292148    0.977722177027304
1.9376688344172088    0.9840293231200932
1.9416208104052028    0.9893967849607066
1.9455727863931969    0.9937370964232759
1.9495247623811909    0.9969780857047542
1.953476738369185    0.9990651946177558
1.957428714357179    0.9999632877224481
1.961380690345173    0.9996578384886332
1.9653326663331667    0.9981554167763662
1.9692846423211607    0.995483446715997
1.9732366183091548    0.9916892519942953
1.9771885942971488    0.9868384515890876
1.9811405702851428    0.981012808420041
1.9850925462731368    0.9743076624777611
1.9890445222611308    0.9668290965289048
1.9929964982491248    0.9586909859391959
1.9969484742371189    0.9500120755703266
2.000900450225113    0.9409132083984115
2.0048524262131067    0.9315148055300324
2.0088044022011005    0.921934668939133
2.0127563781890947    0.9122861495594432
2.0167083541770885    0.9026766968211476
2.0206603301650827    0.8932067830547972
2.0246123061530765    0.8839691783685613
2.0285642821410708    0.8750485389156357
2.0325162581290646    0.8665212636476374
